annotCls,ecg,anomalyScore,multiStepBestPredictions.1
0,931,0.5,None
0,935,0.5,931.0
0,935,0.5,935.0
0,939,0.5,935.0
0,943,0.5,935.0
0,947,0.5,935.0
0,948,0.5,943.0
0,951,0.5,947.0
0,949,0.5,948.0
0,951,0.5,951.0
0,951,0.5,949.0
0,952,0.5,951.0
0,949,0.5,951.0
0,948,0.5,951.0
0,947,0.5,951.0
0,950,0.5,951.0
0,952,0.5,951.0
0,952,0.5,951.0
0,951,0.5,951.0
0,947,0.5,952.0
0,947,0.5,951.0
0,946,0.5,951.0
0,947,0.5,947.0
0,950,0.5,947.0
0,949,0.5,947.0
0,946,0.5,947.0
0,944,0.5,947.0
0,946,0.5,947.0
0,948,0.5,947.0
0,947,0.5,947.0
0,949,0.5,947.0
0,949,0.5,947.0
0,949,0.5,947.0
0,949,0.5,949.0
0,954,0.5,949.0
0,953,0.5,949.0
0,950,0.5,949.0
0,947,0.5,949.0
0,945,0.5,949.0
0,946,0.5,947.0
0,947,0.5,947.0
0,946,0.5,947.0
0,945,0.5,947.0
0,944,0.5,947.0
0,942,0.5,947.0
0,945,0.5,947.0
0,945,0.5,947.0
0,947,0.5,947.0
0,944,0.5,947.0
0,943,0.5,947.0
0,942,0.5,947.0
0,942,0.5,947.0
0,944,0.5,942.0
0,944,0.5,944.0
0,943,0.5,944.0
0,936,0.5,943.0
0,933,0.5,936.0
0,936,0.5,933.0
0,939,0.5,936.0
0,942,0.5,939.0
0,941,0.5,942.0
0,937,0.5,941.0
0,934,0.5,937.0
0,938,0.5,934.0
0,940,0.5,938.0
0,939,0.5,940.0
0,939,0.5,939.0
0,938,0.5,939.0
0,936,0.5,938.0
0,941,0.5,936.0
0,942,0.5,941.0
0,941,0.5,942.0
0,936,0.5,941.0
0,933,0.5,936.0
0,932,0.5,933.0
0,934,0.5,932.0
0,935,0.5,934.0
0,936,0.5,935.0
0,938,0.5,936.0
0,940,0.5,938.0
0,940,0.5,940.0
0,941,0.5,940.0
0,943,0.5,941.0
0,946,0.5,943.0
0,946,0.5,946.0
0,945,0.5,946.0
0,948,0.5,945.0
0,951,0.5,948.0
0,951,0.5,951.0
0,954,0.5,951.0
0,950,0.5,954.0
0,950,0.5,950.0
0,955,0.5,950.0
0,957,0.5,955.0
0,961,0.5,957.0
0,964,0.5,961.0
0,964,0.5,964.0
0,961,0.5,964.0
0,958,0.5,961.0
0,958,0.5,958.0
0,959,0.5,961.0
0,959,0.5,961.0
0,958,0.5,959.0
0,955,0.5,959.0
0,956,0.5,950.0
0,958,0.5,950.0
0,956,0.5,959.0
0,956,0.5,958.0
0,955,0.5,958.0
0,960,0.5,956.0
0,963,0.5,958.0
0,965,0.5,964.0
0,962,0.5,964.0
0,954,0.5,965.0
0,951,0.5,950.0
0,948,0.5,951.0
0,945,0.5,951.0
0,945,0.5,944.0
0,943,0.5,944.0
0,942,0.5,944.0
0,938,0.5,944.0
0,937,0.5,940.0
0,935,0.5,939.0
0,936,0.5,939.0
0,935,0.5,933.0
0,937,0.5,936.0
0,937,0.5,935.0
0,933,0.5,935.0
0,930,0.5,932.0
0,932,0.5,934.0
0,934,0.5,930.0
0,936,0.5,935.0
0,932,0.5,935.0
0,932,0.5,934.0
0,930,0.5,934.0
0,932,0.5,932.0
0,931,0.5,932.0
0,934,0.5,932.0
0,933,0.5,936.0
0,933,0.5,932.0
0,930,0.5,932.0
0,932,0.5,932.0
0,935,0.5,932.0
0,933,0.5,937.0
0,924,0.5,930.0
0,916,0.5,934.0
0,910,0.5,934.0
0,908,0.5,940.0
0,902,0.5,910.0
0,897,0.5,908.0
0,902,0.5,958.0
0,917,0.5,897.0
0,942,0.5,910.0
0,969,0.5,938.0
0,991,0.5,961.0
0,1014,0.5,936.0
0,1035,0.5,941.0
0,1063,0.5,938.0
0,1098,0.5,942.0
0,1137,0.5,941.0
0,1165,0.5,936.0
0,1187,0.5,940.0
0,1207,0.5,955.0
0,1213,0.5,942.0
0,1199,0.5,943.0
0,1139,0.5,941.0
0,1058,0.5,1165.0
0,978,0.5,1098.0
0,922,0.5,936.0
0,902,0.5,916.0
0,900,0.5,917.0
0,908,0.5,902.0
0,918,0.5,902.0
0,924,0.5,942.0
0,925,0.5,902.0
0,924,0.5,916.0
0,921,0.5,925.0
0,925,0.5,924.0
0,926,0.5,924.0
0,929,0.5,925.0
0,926,0.5,932.0
0,923,0.5,925.0
0,923,0.5,925.0
0,922,0.5,925.0
0,924,0.5,925.0
0,925,0.5,923.0
0,925,0.5,924.0
0,922,0.5,925.0
0,923,0.5,925.0
0,923,0.5,925.0
0,926,0.5,925.0
0,923,0.5,925.0
0,922,0.5,923.0
0,921,0.5,923.0
0,921,0.5,923.0
0,920,0.5,923.0
0,923,0.5,923.0
0,924,0.5,923.0
0,923,0.5,923.0
0,922,0.5,923.0
0,921,0.5,923.0
0,924,0.5,923.0
0,922,0.5,923.0
0,925,0.5,923.0
0,923,0.5,923.0
0,919,0.5,923.0
0,918,0.5,924.0
0,922,0.5,924.0
0,922,0.5,923.0
0,923,0.5,923.0
0,924,0.5,923.0
0,919,0.5,923.0
0,922,0.5,922.0
0,919,0.5,923.0
0,922,0.5,922.0
0,923,0.5,923.0
0,922,0.5,923.0
0,922,0.5,923.0
0,920,0.5,923.0
0,923,0.5,922.0
0,925,0.5,922.0
0,925,0.5,923.0
0,925,0.5,923.0
0,922,0.5,923.0
0,918,0.5,923.0
0,922,0.5,922.0
0,923,0.5,922.0
0,923,0.5,922.0
0,920,0.5,922.0
0,919,0.5,922.0
0,919,0.5,922.0
0,919,0.5,922.0
0,921,0.5,922.0
0,923,0.5,922.0
0,923,0.5,923.0
0,919,0.5,923.0
0,918,0.5,922.0
0,919,0.5,922.0
0,919,0.5,922.0
0,919,0.5,922.0
0,918,0.5,922.0
0,916,0.5,919.0
0,914,0.5,919.0
0,915,0.5,919.0
0,918,0.5,919.0
0,919,0.5,919.0
0,918,0.5,919.0
0,916,0.5,919.0
0,912,0.5,919.0
0,911,0.5,918.0
0,912,0.5,918.0
0,914,0.5,918.0
0,913,0.5,918.0
0,911,0.5,918.0
0,910,0.5,918.0
0,912,0.5,918.0
0,916,0.5,918.0
0,918,0.5,919.0
0,916,0.5,919.0
0,919,0.5,918.0
0,920,0.5,919.0
0,926,0.5,919.0
0,929,0.5,923.0
0,932,0.5,932.0
0,933,0.5,932.0
0,934,0.5,930.0
0,934,0.5,933.0
0,939,0.5,933.0
0,943,0.5,937.0
0,943,0.5,942.0
0,945,0.5,942.0
0,946,0.5,943.0
0,946,0.5,945.0
0,949,0.5,945.0
0,953,0.5,945.0
0,954,0.5,951.0
0,952,0.5,951.0
0,954,0.5,951.0
0,950,0.5,952.0
0,951,0.5,950.0
0,954,0.5,951.0
0,956,0.5,950.0
0,954,0.5,956.0
0,954,0.5,956.0
0,954,0.5,956.0
0,955,0.5,954.0
0,955,0.5,954.0
0,954,0.5,954.0
0,954,0.5,954.0
0,954,0.5,954.0
0,953,0.5,954.0
0,957,0.5,954.0
0,958,0.5,954.0
0,956,0.5,954.0
0,959,0.5,954.0
0,956,0.5,958.0
0,954,0.5,954.0
0,956,0.5,954.0
0,956,0.5,954.0
0,959,0.5,954.0
0,954,0.5,956.0
0,956,0.5,954.0
0,952,0.5,954.0
0,952,0.5,954.0
0,955,0.5,954.0
0,958,0.5,954.0
0,956,0.5,956.0
0,956,0.5,954.0
0,951,0.5,954.0
0,953,0.5,954.0
0,952,0.5,954.0
0,954,0.5,954.0
0,953,0.5,954.0
0,950,0.5,954.0
0,952,0.5,951.0
0,952,0.5,954.0
0,955,0.5,954.0
0,955,0.5,956.0
0,955,0.5,956.0
0,954,0.5,956.0
0,951,0.5,954.0
0,952,0.5,954.0
0,953,0.5,954.0
0,951,0.5,954.0
0,949,0.5,952.0
0,950,0.5,953.0
0,947,0.5,952.0
0,948,0.5,946.0
0,951,0.5,946.0
0,951,0.5,952.0
0,950,0.5,952.0
0,949,0.5,951.0
0,947,0.5,951.0
0,949,0.5,946.0
0,950,0.5,951.0
0,951,0.5,949.0
0,953,0.5,951.0
0,952,0.5,954.0
0,952,0.5,954.0
0,952,0.5,952.0
0,954,0.5,952.0
0,955,0.5,954.0
0,956,0.5,954.0
0,955,0.5,954.0
0,953,0.5,956.0
0,953,0.5,954.0
0,955,0.5,954.0
0,957,0.5,956.0
0,956,0.5,956.0
0,953,0.5,956.0
0,950,0.5,954.0
0,953,0.5,951.0
0,955,0.5,954.0
0,956,0.5,956.0
0,954,0.5,956.0
0,953,0.5,954.0
0,953,0.5,954.0
0,953,0.5,954.0
0,957,0.5,953.0
0,962,0.5,956.0
0,966,0.5,954.0
0,967,0.5,962.0
0,966,0.5,962.0
0,970,0.5,967.0
0,972,0.5,991.0
0,975,0.5,991.0
0,974,0.5,922.0
0,975,0.5,922.0
0,975,0.5,974.0
0,978,0.5,975.0
0,980,0.5,975.0
0,981,0.5,975.0
0,980,0.5,975.0
0,977,0.5,975.0
0,976,0.5,980.0
0,976,0.5,975.0
0,976,0.5,975.0
0,975,0.5,975.0
0,975,0.5,976.0
0,976,0.5,975.0
0,974,0.5,975.0
0,971,0.5,975.0
0,972,0.5,975.0
0,970,0.5,975.0
0,972,0.5,975.0
0,972,0.5,975.0
0,976,0.5,975.0
0,981,0.5,975.0
0,983,0.5,976.0
0,977,0.5,976.0
0,969,0.5,976.0
0,966,0.5,972.0
0,964,0.5,972.0
0,963,0.5,966.0
0,960,0.5,966.0
0,959,0.5,956.0
0,955,0.5,956.0
0,953,0.5,956.0
0,951,0.5,953.0
0,951,0.5,953.0
0,954,0.5,953.0
0,954,0.5,954.0
0,953,0.5,954.0
0,952,0.5,953.0
0,951,0.5,953.0
0,950,0.5,953.0
0,951,0.5,951.0
0,954,0.5,951.0
0,956,0.5,954.0
0,955,0.5,956.0
0,953,0.5,956.0
0,953,0.5,953.0
0,954,0.5,953.0
0,955,0.5,954.0
0,955,0.5,956.0
0,951,0.5,956.0
0,951,0.5,951.0
0,949,0.5,954.0
0,944,0.5,951.0
0,938,0.5,944.0
0,928,0.5,937.0
0,926,0.5,932.0
0,918,0.5,923.0
0,911,0.5,919.0
0,916,0.5,918.0
0,934,0.5,919.0
0,961,0.5,933.0
0,991,0.5,958.0
0,1021,0.5,1014.0
0,1064,0.5,1035.0
0,1121,0.5,1098.0
0,1170,0.5,954.0
0,1202,0.5,1187.0
0,1218,0.5,1139.0
0,1230,0.5,1199.0
0,1242,0.5,943.0
0,1252,0.5,936.0
0,1234,0.5,936.0
0,1175,0.5,1242.0
0,1083,0.5,1202.0
0,990,0.5,941.0
0,937,0.5,1021.0
0,921,0.5,933.0
0,928,0.5,923.0
0,939,0.5,932.0
0,946,0.5,943.0
0,942,0.5,946.0
0,943,0.5,938.0
0,946,0.5,945.0
0,945,0.5,949.0
0,944,0.5,946.0
0,943,0.5,938.0
0,941,0.5,946.0
0,940,0.5,943.0
0,945,0.5,943.0
0,944,0.5,943.0
0,941,0.5,943.0
0,939,0.5,940.0
0,937,0.5,946.0
0,940,0.5,933.0
0,943,0.5,945.0
0,944,0.5,943.0
0,942,0.5,943.0
0,941,0.5,943.0
0,940,0.5,943.0
0,940,0.5,943.0
0,943,0.5,943.0
0,941,0.5,943.0
0,942,0.5,940.0
0,940,0.5,941.0
0,937,0.5,943.0
0,940,0.5,937.0
0,942,0.5,943.0
0,942,0.5,940.0
0,943,0.5,940.0
0,939,0.5,941.0
0,937,0.5,937.0
0,940,0.5,940.0
0,940,0.5,943.0
0,940,0.5,943.0
0,941,0.5,940.0
0,938,0.5,940.0
0,936,0.5,937.0
0,940,0.5,933.0
0,940,0.5,940.0
0,942,0.5,940.0
0,941,0.5,943.0
0,940,0.5,940.0
0,938,0.5,940.0
0,941,0.5,940.0
0,942,0.5,940.0
0,943,0.5,941.0
0,941,0.5,941.0
0,941,0.5,940.0
0,938,0.5,940.0
0,938,0.5,940.0
0,940,0.5,940.0
0,942,0.5,940.0
0,941,0.5,943.0
0,942,0.5,940.0
0,938,0.5,941.0
0,939,0.5,940.0
0,939,0.5,940.0
0,941,0.5,940.0
0,942,0.5,942.0
0,939,0.5,941.0
0,937,0.5,940.0
0,938,0.5,940.0
0,942,0.5,940.0
0,941,0.5,941.0
0,941,0.5,942.0
0,938,0.5,942.0
0,938,0.5,940.0
0,937,0.5,940.0
0,939,0.5,940.0
0,942,0.5,937.0
0,940,0.5,941.0
0,937,0.5,940.0
0,936,0.5,940.0
0,936,0.5,940.0
0,942,0.5,940.0
0,941,0.5,941.0
0,939,0.5,942.0
0,936,0.5,937.0
0,935,0.5,940.0
0,936,0.5,936.0
0,938,0.5,935.0
0,940,0.5,937.0
0,940,0.5,940.0
0,939,0.5,940.0
0,939,0.5,940.0
0,939,0.5,940.0
0,939,0.5,940.0
0,940,0.5,940.0
0,939,0.5,940.0
0,937,0.5,940.0
0,936,0.5,940.0
0,939,0.5,936.0
0,941,0.5,939.0
0,943,0.5,942.0
0,945,0.5,941.0
0,945,0.5,944.0
0,945,0.5,944.0
0,950,0.5,945.0
0,952,0.5,951.0
0,955,0.5,954.0
0,958,0.5,955.0
0,958,0.5,956.0
0,957,0.5,956.0
0,960,0.5,956.0
0,961,0.5,959.0
0,962,0.5,954.0
0,964,0.5,966.0
0,961,0.5,966.0
0,958,0.5,962.0
0,960,0.5,956.0
0,961,0.5,958.0
0,963,0.5,958.0
0,962,0.5,964.0
0,963,0.5,964.0
0,959,0.5,962.0
0,960,0.5,956.0
0,962,0.5,956.0
0,965,0.5,963.0
0,963,0.5,964.0
0,960,0.5,962.0
0,962,0.5,956.0
0,961,0.5,963.0
0,963,0.5,962.0
0,964,0.5,963.0
0,964,0.5,963.0
0,962,0.5,963.0
0,961,0.5,963.0
0,962,0.5,963.0
0,964,0.5,961.0
0,965,0.5,964.0
0,963,0.5,964.0
0,962,0.5,964.0
0,960,0.5,964.0
0,960,0.5,962.0
0,962,0.5,962.0
0,962,0.5,962.0
0,960,0.5,962.0
0,956,0.5,962.0
0,958,0.5,956.0
0,955,0.5,956.0
0,959,0.5,955.0
0,960,0.5,956.0
0,959,0.5,962.0
0,956,0.5,956.0
0,957,0.5,956.0
0,959,0.5,956.0
0,957,0.5,956.0
0,958,0.5,956.0
0,957,0.5,956.0
0,955,0.5,956.0
0,955,0.5,955.0
0,955,0.5,955.0
0,957,0.5,955.0
0,959,0.5,956.0
0,959,0.5158519418,956.0
0,958,0.5469362902,956.0
0,953,0.5780206386,956.0
0,952,0.609104987,953.0
0,956,0.6401893354,954.0
0,957,0.655421742,955.0
0,955,0.655421742,956.0
0,954,0.655421742,956.0
0,953,0.6401893354,954.0
0,954,0.6401893354,952.0
0,955,0.6401893354,953.0
0,954,0.6401893354,953.0
0,953,0.6249569288,955.0
0,950,0.6249569288,952.0
0,952,0.6097245222,951.0
0,952,0.5944921156,954.0
0,954,0.579259709,952.0
0,953,0.5634077672,953.0
0,955,0.5634077672,952.0
0,955,0.5634077672,955.0
0,952,0.5475558254,954.0
0,953,0.5317038836,952.0
0,957,0.5475558254,954.0
0,956,0.5475558254,956.0
0,957,0.5475558254,955.0
0,954,0.5634077672,956.0
0,952,0.5554421998,953.0
0,954,0.5475558254,952.0
0,957,0.539669451,953.0
0,958,0.5238175092,956.0
0,960,0.5079655674,956.0
0,961,0.5159311348,962.0
0,958,0.5079655674,962.0
0,963,0.5,956.0
0,965,0.5,962.0
0,968,0.5,963.0
0,969,0.5235822844,972.0
0,969,0.5471645688,972.0
0,969,0.5707468532,972.0
0,968,0.6018312016,972.0
0,975,0.646980578,972.0
0,978,0.66854767,976.0
0,979,0.690114762,976.0
0,979,0.711681854,976.0
0,981,0.725746882,976.0
0,981,0.725746882,976.0
0,983,0.725746882,976.0
0,982,0.725746882,981.0
0,980,0.725746882,981.0
0,977,0.725746882,981.0
0,971,0.725746882,976.0
0,976,0.725746882,972.0
0,980,0.725746882,975.0
0,980,0.725746882,981.0
0,981,0.725746882,980.0
0,979,0.725746882,980.0
0,981,0.725746882,980.0
0,986,0.711681854,980.0
0,990,0.6585669102,937.0
0,989,0.5751250416,937.0
0,980,0.4667876902,937.0
0,974,0.3584503388,981.0
0,967,0.2641780154,975.0
0,967,0.2089556078,964.0
0,968,0.184060125,964.0
0,967,0.184060125,972.0
0,964,0.184060125,968.0
0,962,0.1956408304,962.0
0,958,0.235246521,962.0
0,955,0.3142864378,956.0
0,955,0.4226237892,954.0
0,954,0.5309611406,954.0
0,955,0.6277177866,953.0
0,953,0.6895925632,954.0
0,951,0.7120331136,952.0
0,953,0.7051762294,954.0
0,955,0.6983193452,954.0
0,955,0.691462461,955.0
0,953,0.6767522532,954.0
0,952,0.6620420454,953.0
0,949,0.6473318376,954.0
0,949,0.6326216298,951.0
0,951,0.617911422,951.0
0,950,0.625413486,954.0
0,949,0.63291555,952.0
0,949,0.640417614,951.0
0,946,0.647919678,951.0
0,948,0.655421742,949.0
0,947,0.6626298858,951.0
0,950,0.6698380296,949.0
0,948,0.6698380296,952.0
0,948,0.6770461734,951.0
0,947,0.6842543172,951.0
0,947,0.6842543172,949.0
0,949,0.6842543172,949.0
0,945,0.691462461,951.0
0,938,0.6767522532,945.0
0,930,0.6620420454,940.0
0,925,0.6473318376,932.0
0,922,0.6326216298,923.0
0,920,0.617911422,923.0
0,911,0.617911422,919.0
0,909,0.617911422,916.0
0,916,0.617911422,918.0
0,937,0.5943291376,919.0
0,958,0.532454361,940.0
0,974,0.4637227002,956.0
0,987,0.3885331462,976.0
0,1003,0.2879647958,980.0
0,1027,0.1989246542,936.0
0,1063,0.1444032102,1064.0
0,1113,0.0923332762,1121.0
0,1157,0.0446339406,941.0
0,1190,0.0217574342,940.0
0,1210,0.0109910964,1207.0
0,1219,0.0041781952,1199.0
0,1204,0.0016674852,1230.0
0,1153,0.0010707752,1218.0
0,1076,0.0010300324,1190.0
0,995,0.000933196600001,990.0
0,941,0.000591855800001,937.0
0,914,0.000343436200001,942.0
0,913,0.000384179000001,916.0
0,925,0.000798520200001,916.0
0,936,0.000971815,923.0
0,943,0.0013131558,936.0
0,942,0.002931103,941.0
0,940,0.0073437018,941.0
0,937,0.020194116,940.0
0,941,0.0516551872,940.0
0,941,0.1061326482,940.0
0,943,0.1965275736,940.0
0,942,0.2840119798,941.0
0,942,0.3706505396,941.0
0,938,0.4625017732,941.0
0,941,0.552800526,940.0
0,942,0.6059154698,942.0
0,942,0.6590304136,941.0
0,941,0.70417979,941.0
0,942,0.725746882,942.0
0,939,0.725746882,941.0
0,942,0.725746882,939.0
0,941,0.725746882,941.0
0,942,0.725746882,942.0
0,940,0.725746882,941.0
0,939,0.725746882,940.0
0,937,0.725746882,939.0
0,939,0.725746882,940.0
0,942,0.725746882,937.0
0,941,0.725746882,941.0
0,939,0.725746882,942.0
0,939,0.725746882,939.0
0,937,0.725746882,939.0
0,940,0.725746882,939.0
0,940,0.725746882,942.0
0,942,0.725746882,940.0
0,942,0.725746882,941.0
0,938,0.725746882,941.0
0,938,0.725746882,940.0
0,940,0.725746882,940.0
0,941,0.725746882,942.0
0,943,0.725746882,942.0
0,941,0.725746882,942.0
0,942,0.725746882,942.0
0,937,0.7188899978,941.0
0,938,0.7120331136,940.0
0,941,0.7051762294,940.0
0,945,0.6911112014,942.0
0,941,0.6770461734,945.0
0,938,0.6698380296,942.0
0,937,0.6626298858,940.0
0,940,0.655421742,940.0
0,939,0.655421742,942.0
0,940,0.655421742,937.0
0,939,0.6626298858,940.0
0,940,0.6698380296,939.0
0,938,0.6770461734,940.0
0,939,0.6911112014,940.0
0,942,0.7051762294,940.0
0,942,0.7120331136,941.0
0,942,0.7188899978,941.0
0,941,0.725746882,941.0
0,941,0.725746882,942.0
0,938,0.725746882,942.0
0,943,0.7188899978,940.0
0,944,0.7120331136,941.0
0,946,0.6979680856,941.0
0,942,0.6839030576,949.0
0,943,0.6698380296,941.0
0,944,0.6626298858,941.0
0,946,0.655421742,942.0
0,945,0.655421742,949.0
0,944,0.655421742,945.0
0,943,0.655421742,946.0
0,942,0.6626298858,941.0
0,942,0.6698380296,941.0
0,942,0.6839030576,941.0
0,943,0.6979680856,942.0
0,942,0.7120331136,942.0
0,942,0.7188899978,942.0
0,937,0.7188899978,942.0
0,941,0.7120331136,940.0
0,941,0.7051762294,942.0
0,943,0.6911112014,942.0
0,941,0.6770461734,942.0
0,939,0.6698380296,942.0
0,934,0.6395111048,939.0
0,937,0.6012186126,936.0
0,940,0.5701342642,940.0
0,942,0.5390499158,942.0
0,940,0.5079655674,942.0
0,935,0.4841480582,942.0
0,935,0.4682961164,936.0
0,936,0.460330549,936.0
0,939,0.4523649816,940.0
0,943,0.4212806332,940.0
0,941,0.4291670076,942.0
0,942,0.4450189494,942.0
0,942,0.4529845168,942.0
0,945,0.4529845168,942.0
0,948,0.4761032978,945.0
0,949,0.4920344326,947.0
0,951,0.5,949.0
0,950,0.5079655674,954.0
0,952,0.5238967022,951.0
0,953,0.562946618,954.0
0,956,0.586065399,954.0
0,957,0.60918418,955.0
0,959,0.6170705544,956.0
0,958,0.6326872714,960.0
0,955,0.6326872714,956.0
0,959,0.6251852074,954.0
0,959,0.6176831434,958.0
0,961,0.625413486,956.0
0,960,0.625413486,962.0
0,959,0.617911422,962.0
0,959,0.617911422,956.0
0,961,0.617911422,959.0
0,960,0.6326216298,962.0
0,963,0.6473318376,959.0
0,963,0.6620420454,962.0
0,962,0.6836091374,962.0
0,960,0.7051762294,962.0
0,963,0.7120331136,962.0
0,964,0.7188899978,962.0
0,967,0.725746882,962.0
0,966,0.725746882,964.0
0,966,0.725746882,964.0
0,964,0.725746882,964.0
0,965,0.725746882,962.0
0,966,0.725746882,964.0
0,965,0.725746882,964.0
0,962,0.725746882,964.0
0,961,0.725746882,962.0
0,958,0.725746882,960.0
0,962,0.725746882,956.0
0,963,0.725746882,962.0
0,963,0.725746882,962.0
0,963,0.725746882,962.0
0,962,0.725746882,962.0
0,959,0.725746882,963.0
0,959,0.725746882,959.0
0,959,0.725746882,959.0
0,960,0.725746882,959.0
0,960,0.725746882,959.0
0,957,0.725746882,959.0
0,959,0.7188899978,955.0
0,959,0.7120331136,959.0
0,961,0.7051762294,959.0
0,961,0.6983193452,960.0
0,961,0.691462461,960.0
0,960,0.691462461,960.0
0,959,0.691462461,959.0
0,961,0.691462461,959.0
0,963,0.691462461,960.0
0,964,0.691462461,962.0
0,963,0.6983193452,962.0
0,960,0.7051762294,962.0
0,957,0.7120331136,959.0
0,958,0.7120331136,955.0
0,959,0.7048249698,959.0
0,961,0.6907599418,959.0
0,956,0.6766949138,960.0
0,955,0.6626298858,955.0
0,953,0.647919678,954.0
0,956,0.640417614,952.0
0,955,0.63291555,955.0
0,957,0.625413486,953.0
0,956,0.617911422,959.0
0,953,0.617911422,955.0
0,952,0.625413486,952.0
0,952,0.63291555,954.0
0,953,0.640417614,952.0
0,954,0.647919678,953.0
0,954,0.655421742,955.0
0,953,0.6401893354,955.0
0,951,0.6249569288,952.0
0,952,0.6097245222,953.0
0,954,0.6022224582,952.0
0,956,0.5947203942,955.0
0,955,0.5947203942,954.0
0,954,0.5947203942,953.0
0,952,0.5947203942,954.0
0,951,0.5791036772,954.0
0,952,0.5791036772,952.0
0,953,0.6015442276,952.0
0,952,0.6167766342,954.0
0,950,0.6320090408,952.0
0,949,0.6551278218,952.0
0,952,0.6626298858,951.0
0,957,0.655421742,952.0
0,959,0.655421742,956.0
0,959,0.6626298858,959.0
0,959,0.6698380296,959.0
0,960,0.6770461734,959.0
0,962,0.6842543172,959.0
0,963,0.6983193452,960.0
0,965,0.7051762294,962.0
0,966,0.7120331136,963.0
0,968,0.7188899978,964.0
0,965,0.725746882,966.0
0,970,0.725746882,963.0
0,974,0.725746882,972.0
0,977,0.725746882,981.0
0,975,0.725746882,981.0
0,972,0.725746882,981.0
0,972,0.725746882,975.0
0,976,0.725746882,975.0
0,976,0.725746882,981.0
0,977,0.725746882,981.0
0,978,0.725746882,976.0
0,979,0.725746882,981.0
0,977,0.725746882,981.0
0,976,0.725746882,976.0
0,972,0.725746882,976.0
0,974,0.725746882,976.0
0,976,0.725746882,976.0
0,973,0.725746882,976.0
0,971,0.725746882,976.0
0,975,0.725746882,976.0
0,975,0.725746882,976.0
0,980,0.725746882,976.0
0,982,0.725746882,981.0
0,976,0.725746882,980.0
0,970,0.725746882,976.0
0,965,0.725746882,972.0
0,964,0.725746882,963.0
0,963,0.725746882,963.0
0,958,0.725746882,963.0
0,953,0.725746882,959.0
0,950,0.725746882,952.0
0,951,0.725746882,952.0
0,952,0.725746882,952.0
0,952,0.725746882,952.0
0,952,0.725746882,952.0
0,949,0.725746882,952.0
0,947,0.725746882,949.0
0,946,0.725746882,949.0
0,946,0.725746882,945.0
0,947,0.725746882,945.0
0,947,0.7188899978,946.0
0,946,0.7120331136,946.0
0,939,0.682735679,946.0
0,941,0.6534382444,939.0
0,943,0.608288868,942.0
0,945,0.5699963758,941.0
0,943,0.5317038836,945.0
0,943,0.5158519418,942.0
0,940,0.5,942.0
0,941,0.5,942.0
0,944,0.4764177156,942.0
0,946,0.4528354312,946.0
0,944,0.4448698638,946.0
0,943,0.4369042964,946.0
0,939,0.4527562382,942.0
0,938,0.48430409,939.0
0,934,0.5078863744,940.0
0,929,0.5158519418,936.0
0,925,0.5238175092,932.0
0,918,0.5079655674,923.0
0,902,0.5,919.0
0,895,0.4920344326,908.0
0,901,0.4761824908,902.0
0,918,0.4526002064,895.0
0,936,0.421515858,919.0
0,949,0.3699085884,939.0
0,958,0.3202452356,949.0
0,974,0.2844899078,959.0
0,995,0.2448842172,976.0
0,1033,0.1953286626,941.0
0,1085,0.163087264,1063.0
0,1137,0.127902248,990.0
0,1176,0.0830824018,1165.0
0,1197,0.0490510664,1083.0
0,1193,0.030623207,1218.0
0,1148,0.01516527,1210.0
0,1066,0.0082491858,1076.0
0,982,0.0048137292,1113.0
0,924,0.0022265602,976.0
0,904,0.0018053486,923.0
0,911,0.002751461,918.0
0,924,0.0070315078,916.0
0,936,0.0178539386,923.0
0,936,0.037020515,939.0
0,932,0.0788805688,939.0
0,931,0.1461567132,932.0
0,933,0.2495722542,932.0
0,937,0.3621946802,930.0
0,935,0.4739189316,940.0
0,933,0.569840344,936.0
0,927,0.6392171846,933.0
0,931,0.6695441094,923.0
0,932,0.6842543172,932.0
0,933,0.691462461,932.0
0,935,0.691462461,933.0
0,933,0.691462461,936.0
0,930,0.691462461,933.0
0,929,0.691462461,932.0
0,934,0.691462461,932.0
0,933,0.691462461,933.0
0,934,0.691462461,933.0
0,932,0.691462461,933.0
0,931,0.691462461,933.0
0,932,0.691462461,932.0
0,938,0.6842543172,933.0
0,939,0.6770461734,940.0
0,936,0.654605623,939.0
0,932,0.6321650726,939.0
0,930,0.6097245222,932.0
0,931,0.5944921156,932.0
0,931,0.579259709,932.0
0,934,0.5869900516,932.0
0,932,0.5947203942,933.0
0,930,0.6024507368,932.0
0,931,0.6176831434,932.0
0,930,0.63291555,932.0
0,933,0.654482642,932.0
0,932,0.676049734,930.0
0,931,0.697616826,932.0
0,928,0.711681854,932.0
0,925,0.725746882,932.0
0,924,0.725746882,923.0
0,923,0.725746882,923.0
0,927,0.725746882,923.0
0,926,0.725746882,923.0
0,926,0.725746882,923.0
0,923,0.725746882,923.0
0,928,0.725746882,923.0
0,932,0.725746882,925.0
0,935,0.725746882,931.0
0,936,0.725746882,933.0
0,933,0.725746882,939.0
0,931,0.725746882,932.0
0,930,0.725746882,932.0
0,931,0.725746882,932.0
0,931,0.725746882,932.0
0,930,0.725746882,932.0
0,926,0.725746882,931.0
0,923,0.725746882,923.0
0,925,0.725746882,923.0
0,928,0.725746882,923.0
0,931,0.725746882,923.0
0,932,0.725746882,931.0
0,930,0.725746882,931.0
0,928,0.725746882,931.0
0,928,0.725746882,931.0
0,932,0.725746882,931.0
0,931,0.725746882,931.0
0,931,0.725746882,932.0
0,930,0.725746882,931.0
0,930,0.725746882,931.0
0,930,0.725746882,931.0
0,931,0.725746882,931.0
0,933,0.725746882,931.0
0,934,0.725746882,930.0
0,930,0.725746882,933.0
0,929,0.725746882,931.0
0,929,0.725746882,931.0
0,930,0.725746882,931.0
0,932,0.725746882,931.0
0,929,0.725746882,931.0
0,926,0.725746882,932.0
0,923,0.725746882,923.0
0,921,0.725746882,923.0
0,922,0.725746882,923.0
0,923,0.725746882,923.0
0,923,0.725746882,923.0
0,923,0.725746882,923.0
0,923,0.725746882,923.0
0,924,0.725746882,923.0
0,927,0.725746882,923.0
0,926,0.725746882,923.0
0,924,0.725746882,923.0
0,923,0.725746882,923.0
0,921,0.725746882,923.0
0,922,0.725746882,923.0
0,926,0.725746882,923.0
0,926,0.725746882,923.0
0,929,0.725746882,923.0
0,931,0.725746882,932.0
0,932,0.725746882,931.0
0,937,0.725746882,931.0
0,939,0.725746882,940.0
0,941,0.725746882,939.0
0,945,0.6964494474,942.0
0,946,0.6671520128,945.0
0,947,0.6378545782,946.0
0,948,0.6085571436,946.0
0,948,0.579259709,947.0
0,950,0.579259709,947.0
0,950,0.579259709,952.0
0,950,0.579259709,952.0
0,951,0.579259709,952.0
0,951,0.5713733346,952.0
0,951,0.593813885,952.0
0,949,0.6162544354,952.0
0,950,0.6386949858,951.0
0,952,0.6611355362,952.0
0,950,0.6842543172,952.0
0,951,0.6770461734,952.0
0,953,0.6698380296,952.0
0,955,0.6698380296,952.0
0,954,0.6626298858,955.0
0,952,0.6473974792,954.0
0,949,0.6321650726,952.0
0,949,0.616932666,951.0
0,952,0.5944921156,951.0
0,950,0.579259709,952.0
0,949,0.5713733346,951.0
0,948,0.5634869602,952.0
0,948,0.5556005858,949.0
0,951,0.5477142114,949.0
0,952,0.5477142114,952.0
0,956,0.5708329924,952.0
0,954,0.5864497094,955.0
0,954,0.6020664264,952.0
0,952,0.6099528008,952.0
0,950,0.6099528008,952.0
0,952,0.6024507368,952.0
0,954,0.6024507368,952.0
0,954,0.5868340198,955.0
0,953,0.570982078,952.0
0,951,0.5551301362,952.0
0,949,0.5315478518,952.0
0,950,0.5159311348,951.0
0,949,0.5238175092,952.0
0,944,0.5473997936,949.0
0,944,0.570982078,943.0
0,944,0.5945643624,943.0
0,945,0.6101810794,943.0
0,950,0.625413486,944.0
0,951,0.6401236938,952.0
0,953,0.6548339016,952.0
0,946,0.6695441094,952.0
0,944,0.6770461734,946.0
0,944,0.6770461734,943.0
0,945,0.6698380296,943.0
0,946,0.6626298858,944.0
0,946,0.655421742,946.0
0,944,0.6626298858,946.0
0,942,0.6698380296,944.0
0,943,0.6770461734,942.0
0,944,0.6842543172,941.0
0,947,0.691462461,944.0
0,945,0.691462461,946.0
0,940,0.691462461,944.0
0,940,0.6842543172,942.0
0,944,0.645961825,942.0
0,946,0.6076693328,944.0
0,950,0.5693768406,946.0
0,947,0.5310843484,952.0
0,945,0.5,946.0
0,942,0.5,946.0
0,942,0.5079655674,942.0
0,944,0.5,942.0
0,946,0.4920344326,944.0
0,944,0.4920344326,946.0
0,943,0.523118781,946.0
0,938,0.538735498,942.0
0,941,0.5702833498,940.0
0,942,0.6018312016,942.0
0,942,0.625413486,942.0
0,946,0.602294705,942.0
0,942,0.586677988,946.0
0,943,0.586677988,942.0
0,944,0.586677988,942.0
0,945,0.586677988,946.0
0,948,0.602294705,946.0
0,947,0.625413486,951.0
0,945,0.63291555,946.0
0,948,0.640417614,946.0
0,952,0.647919678,951.0
0,956,0.66948677,952.0
0,958,0.6766949138,955.0
0,962,0.6614625072,959.0
0,960,0.6462301006,963.0
0,959,0.630997694,959.0
0,960,0.6017002594,959.0
0,962,0.579259709,959.0
0,963,0.579259709,960.0
0,962,0.579259709,963.0
0,962,0.579259709,963.0
0,963,0.579259709,963.0
0,963,0.5869900516,962.0
0,969,0.6162874862,963.0
0,969,0.6455849208,972.0
0,969,0.6748823554,972.0
0,970,0.70417979,972.0
0,967,0.725746882,972.0
0,966,0.725746882,964.0
0,967,0.725746882,963.0
0,967,0.725746882,966.0
0,965,0.725746882,966.0
0,964,0.725746882,963.0
0,964,0.725746882,963.0
0,968,0.725746882,963.0
0,969,0.725746882,964.0
0,971,0.725746882,969.0
0,970,0.725746882,976.0
0,969,0.725746882,969.0
0,970,0.725746882,969.0
0,969,0.725746882,969.0
0,972,0.725746882,969.0
0,976,0.725746882,976.0
0,972,0.725746882,976.0
0,965,0.725746882,976.0
0,959,0.7188899978,964.0
0,956,0.7120331136,959.0
0,955,0.7051762294,955.0
0,955,0.6983193452,953.0
0,948,0.6611355362,952.0
0,944,0.6308086114,947.0
0,941,0.6004816866,946.0
0,940,0.5701547618,942.0
0,942,0.539827837,942.0
0,944,0.5082799852,942.0
0,944,0.484462476,946.0
0,941,0.4606449668,946.0
0,940,0.4368274576,942.0
0,939,0.4052796058,942.0
0,940,0.4288618902,939.0
0,941,0.444713832,942.0
0,940,0.4605657738,942.0
0,937,0.4684521482,942.0
0,936,0.4840688652,940.0
0,939,0.5076511496,939.0
0,941,0.531233434,940.0
0,944,0.531233434,942.0
0,943,0.5391990014,944.0
0,940,0.5551301362,942.0
0,939,0.5395134192,942.0
0,940,0.5159311348,940.0
0,940,0.5159311348,942.0
0,940,0.5159311348,940.0
0,941,0.5079655674,940.0
0,938,0.4764177156,942.0
0,933,0.4528354312,940.0
0,929,0.4528354312,930.0
0,923,0.4528354312,931.0
0,919,0.4528354312,923.0
0,915,0.484383283,919.0
0,908,0.5238175092,918.0
0,901,0.539669451,911.0
0,904,0.5555213928,918.0
0,921,0.5555213928,911.0
0,948,0.5317038836,923.0
0,974,0.4642446722,951.0
0,1007,0.3714066644,976.0
0,1054,0.2644678152,1027.0
0,1113,0.1672485048,939.0
0,1163,0.0837938414,1157.0
0,1195,0.0356710906,1187.0
0,1200,0.0127538414,1148.0
0,1167,0.0038552184,1193.0
0,1092,0.00107888302718,1195.0
0,1006,0.000388295039931,1137.0
0,939,0.000121122252682,1054.0
0,911,2.72442654319e-05,940.0
0,903,3.43346654319e-05,916.0
0,903,0.000167408038253,918.0
0,906,0.000675627225502,918.0
0,914,0.00231232761275,911.0
0,924,0.005882405,918.0
0,930,0.0168207034,923.0
0,932,0.043816488,931.0
0,930,0.1050129698,931.0
0,929,0.2033734626,932.0
0,930,0.3380930706,932.0
0,931,0.4654257044,932.0
0,931,0.5765849844,930.0
0,932,0.660026853,931.0
0,933,0.7051762294,931.0
0,931,0.7120331136,930.0
0,929,0.7188899978,931.0
0,931,0.725746882,931.0
0,934,0.725746882,931.0
0,934,0.725746882,933.0
0,930,0.725746882,933.0
0,931,0.725746882,931.0
0,933,0.725746882,931.0
0,934,0.725746882,930.0
0,935,0.725746882,933.0
0,933,0.725746882,936.0
0,931,0.725746882,930.0
0,931,0.725746882,931.0
0,932,0.725746882,931.0
0,934,0.725746882,931.0
0,935,0.725746882,933.0
0,934,0.725746882,933.0
0,931,0.725746882,933.0
0,928,0.725746882,931.0
0,931,0.725746882,923.0
0,931,0.725746882,931.0
0,934,0.725746882,931.0
0,932,0.725746882,933.0
0,931,0.725746882,931.0
0,928,0.725746882,931.0
0,928,0.725746882,931.0
0,931,0.725746882,931.0
0,932,0.725746882,931.0
0,930,0.725746882,931.0
0,928,0.725746882,931.0
0,927,0.725746882,931.0
0,928,0.725746882,931.0
0,930,0.725746882,931.0
0,931,0.725746882,931.0
0,931,0.725746882,931.0
0,930,0.725746882,931.0
0,930,0.725746882,931.0
0,933,0.725746882,931.0
0,931,0.725746882,931.0
0,935,0.725746882,931.0
0,935,0.725746882,933.0
0,932,0.725746882,933.0
0,933,0.725746882,931.0
0,932,0.725746882,931.0
0,934,0.725746882,931.0
0,935,0.725746882,932.0
0,936,0.725746882,933.0
0,932,0.725746882,939.0
0,933,0.725746882,931.0
0,935,0.7188899978,931.0
0,937,0.7120331136,936.0
0,937,0.7051762294,940.0
0,938,0.6983193452,940.0
0,935,0.691462461,940.0
0,933,0.691462461,936.0
0,933,0.691462461,931.0
0,934,0.691462461,931.0
0,937,0.691462461,932.0
0,935,0.691462461,940.0
0,933,0.6983193452,933.0
0,930,0.7051762294,931.0
0,931,0.7120331136,931.0
0,929,0.7120331136,931.0
0,933,0.7120331136,931.0
0,933,0.7051762294,931.0
0,930,0.6983193452,931.0
0,929,0.6842543172,931.0
0,928,0.6770461734,931.0
0,930,0.6698380296,931.0
0,931,0.6626298858,931.0
0,928,0.655421742,931.0
0,925,0.655421742,923.0
0,924,0.6626298858,923.0
0,926,0.6698380296,923.0
0,928,0.6770461734,923.0
0,928,0.6842543172,931.0
0,927,0.691462461,931.0
0,924,0.691462461,931.0
0,923,0.691462461,923.0
0,923,0.691462461,923.0
0,925,0.6983193452,923.0
0,927,0.7051762294,923.0
0,927,0.7120331136,923.0
0,928,0.7188899978,923.0
0,928,0.725746882,931.0
0,931,0.725746882,931.0
0,939,0.688563073,931.0
0,940,0.6434136966,940.0
0,941,0.5982643202,940.0
0,940,0.5531149438,942.0
0,941,0.5079655674,940.0
0,945,0.4764177156,942.0
0,949,0.4528354312,944.0
0,952,0.4292531468,952.0
0,952,0.4056708624,952.0
0,954,0.374586514,952.0
0,953,0.3981687984,955.0
0,957,0.4297166502,952.0
0,959,0.461264502,956.0
0,962,0.4928123538,959.0
0,962,0.5318622696,963.0
0,962,0.562946618,963.0
0,961,0.586065399,963.0
0,961,0.60918418,962.0
0,964,0.632302961,962.0
0,964,0.655421742,963.0
0,965,0.6626298858,963.0
0,964,0.6698380296,964.0
0,958,0.6770461734,963.0
0,961,0.6842543172,959.0
0,965,0.691462461,963.0
0,963,0.691462461,964.0
0,961,0.691462461,962.0
0,959,0.691462461,962.0
0,961,0.691462461,959.0
0,961,0.691462461,963.0
0,964,0.691462461,961.0
0,964,0.691462461,963.0
0,963,0.691462461,963.0
0,961,0.691462461,963.0
0,960,0.6983193452,961.0
0,960,0.7051762294,959.0
0,964,0.7120331136,959.0
0,964,0.7188899978,963.0
0,963,0.725746882,963.0
0,960,0.725746882,963.0
0,960,0.725746882,959.0
0,959,0.725746882,959.0
0,960,0.725746882,959.0
0,964,0.725746882,959.0
0,964,0.725746882,963.0
0,963,0.725746882,963.0
0,961,0.725746882,963.0
0,962,0.725746882,960.0
0,962,0.725746882,963.0
0,961,0.725746882,963.0
0,964,0.725746882,960.0
0,963,0.725746882,964.0
0,961,0.725746882,963.0
0,961,0.725746882,961.0
0,963,0.725746882,961.0
0,961,0.725746882,963.0
0,960,0.725746882,961.0
0,958,0.7188899978,959.0
0,956,0.7120331136,959.0
0,957,0.7051762294,955.0
0,959,0.6983193452,959.0
0,959,0.691462461,959.0
0,960,0.691462461,959.0
0,959,0.691462461,959.0
0,960,0.691462461,959.0
0,960,0.691462461,959.0
0,959,0.691462461,959.0
0,960,0.691462461,959.0
0,959,0.691462461,959.0
0,958,0.6983193452,959.0
0,955,0.7051762294,959.0
0,958,0.7051762294,954.0
0,958,0.7051762294,959.0
0,959,0.7051762294,959.0
0,960,0.6983193452,959.0
0,956,0.691462461,959.0
0,954,0.6767522532,955.0
0,956,0.6620420454,953.0
0,958,0.6473318376,955.0
0,957,0.6326216298,959.0
0,957,0.617911422,959.0
0,957,0.625413486,959.0
0,957,0.63291555,959.0
0,960,0.640417614,959.0
0,961,0.647919678,959.0
0,965,0.655421742,960.0
0,966,0.6626298858,964.0
0,967,0.6698380296,964.0
0,966,0.6770461734,964.0
0,965,0.6842543172,964.0
0,970,0.691462461,964.0
0,973,0.691462461,969.0
0,974,0.691462461,976.0
0,974,0.691462461,976.0
0,969,0.691462461,976.0
0,975,0.6983193452,969.0
0,978,0.7051762294,976.0
0,981,0.7120331136,976.0
0,980,0.7188899978,976.0
0,982,0.725746882,976.0
0,983,0.7188899978,980.0
0,982,0.7120331136,980.0
0,986,0.7051762294,980.0
0,985,0.6983193452,980.0
0,983,0.691462461,980.0
0,981,0.691462461,980.0
0,979,0.691462461,980.0
0,982,0.691462461,981.0
0,983,0.691462461,981.0
0,986,0.691462461,981.0
0,986,0.691462461,983.0
0,983,0.691462461,983.0
0,985,0.691462461,986.0
0,987,0.691462461,983.0
0,993,0.691462461,983.0
0,997,0.6842543172,941.0
0,998,0.6618137668,941.0
0,992,0.6393732164,941.0
0,982,0.616932666,997.0
0,974,0.5944921156,983.0
0,972,0.579259709,976.0
0,971,0.579259709,976.0
0,971,0.579259709,969.0
0,968,0.579259709,969.0
0,968,0.579259709,969.0
0,966,0.5869900516,969.0
0,963,0.609430602,964.0
0,963,0.6318711524,963.0
0,957,0.6543117028,963.0
0,954,0.6767522532,956.0
0,952,0.691462461,954.0
0,954,0.6842543172,952.0
0,955,0.6770461734,953.0
0,958,0.6698380296,954.0
0,954,0.6626298858,959.0
0,952,0.647919678,955.0
0,950,0.640417614,952.0
0,952,0.63291555,952.0
0,954,0.63291555,952.0
0,955,0.63291555,955.0
0,954,0.640417614,954.0
0,953,0.647919678,952.0
0,952,0.655421742,952.0
0,949,0.6401893354,952.0
0,952,0.6249569288,952.0
0,953,0.6174548648,952.0
0,951,0.6022224582,952.0
0,950,0.5869900516,952.0
0,949,0.5869900516,952.0
0,948,0.5869900516,952.0
0,951,0.579259709,952.0
0,949,0.579259709,952.0
0,943,0.5634077672,952.0
0,935,0.5317038836,942.0
0,924,0.4847675934,933.0
0,922,0.4378313032,923.0
0,920,0.398397077,923.0
0,915,0.3748147926,923.0
0,910,0.36708445,918.0
0,918,0.374586514,916.0
0,936,0.382088578,919.0
0,968,0.3480419422,932.0
0,1002,0.2987574388,969.0
0,1046,0.2453536572,1027.0
0,1101,0.1822973818,941.0
0,1159,0.1104296926,1137.0
0,1199,0.0693005458,1190.0
0,1221,0.0428607284,1167.0
0,1212,0.020116774,1204.0
0,1160,0.0067871556,1219.0
0,1069,0.0022434634,1199.0
0,982,0.0010333522,982.0
0,925,0.000533478000001,983.0
0,909,0.000956893200001,923.0
0,917,0.003705761,918.0
0,931,0.0108854906,919.0
0,939,0.0180397326,931.0
0,941,0.0267593046,940.0
0,938,0.0370257682,942.0
0,939,0.0659761294,940.0
0,940,0.107182796,940.0
0,941,0.1548473558,940.0
0,941,0.2007848868,942.0
0,938,0.2515325362,942.0
0,936,0.2815089932,939.0
0,938,0.3020319144,933.0
0,940,0.3630332326,939.0
0,941,0.4240345508,940.0
0,942,0.4934113914,942.0
0,938,0.555286168,942.0
0,936,0.6174548648,940.0
0,939,0.6326872714,933.0
0,941,0.647919678,940.0
0,942,0.647919678,942.0
0,942,0.655421742,942.0
0,940,0.655421742,942.0
0,937,0.655421742,941.0
0,937,0.655421742,940.0
0,940,0.655421742,940.0
0,940,0.6626298858,941.0
0,939,0.6626298858,941.0
0,937,0.6626298858,940.0
0,938,0.6626298858,940.0
0,937,0.6626298858,940.0
0,938,0.655421742,940.0
0,939,0.655421742,940.0
0,940,0.647919678,940.0
0,937,0.640417614,940.0
0,935,0.63291555,940.0
0,934,0.625413486,933.0
0,936,0.625413486,933.0
0,939,0.63291555,939.0
0,937,0.640417614,940.0
0,936,0.647919678,940.0
0,934,0.655421742,939.0
0,937,0.655421742,933.0
0,939,0.6626298858,940.0
0,940,0.6626298858,940.0
0,939,0.6551278218,940.0
0,940,0.6476257578,940.0
0,937,0.6323933512,940.0
0,937,0.6099528008,940.0
0,939,0.6024507368,940.0
0,941,0.6024507368,940.0
0,939,0.5868340198,942.0
0,935,0.5551301362,940.0
0,934,0.5234262526,933.0
0,935,0.4918784008,933.0
0,938,0.4682961164,933.0
0,938,0.4523649816,940.0
0,938,0.4523649816,940.0
0,936,0.4299244312,940.0
0,934,0.3995975064,939.0
0,935,0.3613050142,935.0
0,937,0.3381862332,933.0
0,941,0.3460726076,939.0
0,937,0.3763995324,942.0
0,936,0.4067264572,939.0
0,935,0.437053382,939.0
0,939,0.4761032978,933.0
0,940,0.499920807,940.0
0,941,0.5461788666,940.0
0,941,0.5924369262,942.0
0,940,0.6386949858,942.0
0,941,0.6690219106,940.0
0,940,0.691462461,942.0
0,943,0.6690219106,940.0
0,942,0.6465813602,941.0
0,941,0.6241408098,942.0
0,940,0.593813885,942.0
0,938,0.5634869602,941.0
0,937,0.5556005858,940.0
0,938,0.5477142114,939.0
0,939,0.5238967022,940.0
0,938,0.500079193,940.0
0,936,0.4538211334,940.0
0,933,0.4300036242,939.0
0,935,0.406186115,931.0
0,936,0.3982997406,933.0
0,937,0.3982997406,939.0
0,937,0.4365922328,939.0
0,937,0.4524441746,939.0
0,935,0.4682961164,939.0
0,938,0.4921136256,933.0
0,940,0.5238175092,940.0
0,942,0.5621100014,940.0
0,945,0.5700755688,942.0
0,945,0.5780411362,946.0
0,943,0.5780411362,944.0
0,947,0.5621891944,942.0
0,949,0.5238967022,945.0
0,955,0.5159311348,952.0
0,954,0.5,955.0
0,954,0.4761824908,955.0
0,952,0.4526002064,955.0
0,957,0.429017922,952.0
0,958,0.4369834894,959.0
0,962,0.4529146242,959.0
0,963,0.4767321334,963.0
0,961,0.5161663596,963.0
0,957,0.5556005858,960.0
0,959,0.5634869602,956.0
0,960,0.5791036772,960.0
0,962,0.6022224582,959.0
0,963,0.6246630086,963.0
0,961,0.647103559,963.0
0,959,0.6695441094,961.0
0,962,0.6842543172,959.0
0,959,0.691462461,963.0
0,965,0.6767522532,960.0
0,965,0.6620420454,963.0
0,965,0.6473318376,963.0
0,961,0.6326216298,963.0
0,963,0.617911422,960.0
0,966,0.617911422,963.0
0,965,0.617911422,963.0
0,965,0.625413486,963.0
0,964,0.63291555,963.0
0,958,0.640417614,963.0
0,960,0.6551278218,959.0
0,961,0.6698380296,959.0
0,964,0.6770461734,960.0
0,962,0.6842543172,963.0
0,960,0.691462461,963.0
0,959,0.691462461,959.0
0,962,0.691462461,960.0
0,960,0.691462461,963.0
0,962,0.691462461,959.0
0,961,0.6983193452,963.0
0,961,0.7051762294,960.0
0,957,0.7120331136,960.0
0,959,0.7188899978,959.0
0,957,0.725746882,960.0
0,959,0.725746882,959.0
0,959,0.725746882,960.0
0,959,0.725746882,960.0
0,956,0.725746882,959.0
0,955,0.725746882,954.0
0,959,0.711681854,952.0
0,961,0.697616826,959.0
0,958,0.683551798,960.0
0,958,0.66948677,959.0
0,957,0.655421742,959.0
0,956,0.655421742,959.0
0,954,0.655421742,955.0
0,955,0.647919678,954.0
0,953,0.6168353296,955.0
0,952,0.5857509812,952.0
0,950,0.5705185746,952.0
0,951,0.555286168,952.0
0,953,0.5475558254,952.0
0,954,0.5634077672,952.0
0,952,0.579259709,954.0
0,952,0.579259709,952.0
0,947,0.5554421998,952.0
0,948,0.539590258,949.0
0,951,0.5473206006,951.0
0,954,0.5550509432,952.0
0,952,0.5627812858,954.0
0,951,0.5943291376,952.0
0,947,0.5863635702,952.0
0,948,0.5548157184,949.0
0,952,0.5232678666,951.0
0,956,0.4917200148,952.0
0,955,0.4839896722,956.0
0,954,0.5078071814,954.0
0,953,0.5237383162,954.0
0,954,0.539669451,952.0
0,957,0.5556005858,954.0
0,960,0.5477142114,959.0
0,962,0.5701547618,959.0
0,961,0.6004816866,963.0
0,960,0.6308086114,961.0
0,962,0.6611355362,959.0
0,968,0.691462461,961.0
0,969,0.691462461,965.0
0,970,0.691462461,969.0
0,969,0.6983193452,969.0
0,968,0.7051762294,969.0
0,972,0.7120331136,969.0
0,973,0.7188899978,969.0
0,975,0.725746882,976.0
0,976,0.725746882,976.0
0,976,0.725746882,976.0
0,974,0.725746882,976.0
0,974,0.725746882,976.0
0,978,0.725746882,976.0
0,977,0.725746882,976.0
0,976,0.725746882,976.0
0,972,0.725746882,976.0
0,971,0.725746882,976.0
0,971,0.725746882,969.0
0,978,0.725746882,969.0
0,981,0.725746882,976.0
0,979,0.725746882,983.0
0,978,0.725746882,976.0
0,977,0.725746882,976.0
0,983,0.7188899978,976.0
0,986,0.7120331136,983.0
0,984,0.7051762294,983.0
0,976,0.6983193452,983.0
0,967,0.691462461,976.0
0,963,0.691462461,964.0
0,961,0.691462461,963.0
0,959,0.691462461,961.0
0,958,0.691462461,959.0
0,954,0.691462461,959.0
0,949,0.6842543172,952.0
0,944,0.6618137668,952.0
0,945,0.6393732164,944.0
0,949,0.616932666,945.0
0,951,0.5944921156,952.0
0,951,0.579259709,952.0
0,950,0.579259709,952.0
0,948,0.579259709,952.0
0,946,0.579259709,951.0
0,950,0.579259709,944.0
0,952,0.5944921156,952.0
0,948,0.6097245222,952.0
0,946,0.6249569288,951.0
0,945,0.6401893354,944.0
0,949,0.655421742,945.0
0,946,0.655421742,952.0
0,947,0.655421742,945.0
0,947,0.655421742,949.0
0,945,0.655421742,949.0
0,945,0.655421742,945.0
0,945,0.655421742,945.0
0,943,0.66948677,945.0
0,946,0.683551798,942.0
0,945,0.697616826,945.0
0,945,0.711681854,945.0
0,941,0.725746882,945.0
0,941,0.725746882,942.0
0,934,0.6964494474,942.0
0,928,0.6671520128,935.0
0,922,0.6378545782,931.0
0,920,0.6085571436,923.0
0,908,0.579259709,923.0
0,903,0.579259709,918.0
0,904,0.579259709,918.0
0,921,0.579259709,903.0
0,947,0.5634077672,923.0
0,973,0.539590258,945.0
0,1005,0.539590258,976.0
0,1052,0.539590258,939.0
0,1112,0.539590258,1113.0
0,1163,0.5475558254,1163.0
0,1195,0.5634869602,1195.0
0,1200,0.5556005858,1200.0
0,1174,0.5238967022,1221.0
0,1103,0.4564374908,1197.0
0,1018,0.3756051356,1159.0
0,944,0.2810010084,1064.0
0,909,0.1766083252,945.0
0,904,0.0960331512,918.0
0,917,0.051213305,921.0
0,929,0.027652977,919.0
0,935,0.015931044,931.0
0,936,0.013997667,933.0
0,936,0.013997667,939.0
0,934,0.023786223,939.0
0,935,0.0519443896,935.0
0,938,0.119220534,936.0
0,941,0.2334329686,940.0
0,941,0.3457120262,942.0
0,941,0.4403161534,942.0
0,939,0.5244370444,942.0
0,936,0.5713733346,940.0
0,934,0.5713733346,939.0
0,937,0.5713733346,935.0
0,938,0.579259709,939.0
0,934,0.5475558254,940.0
0,933,0.5158519418,935.0
0,931,0.4841480582,931.0
0,932,0.4524441746,931.0
0,934,0.4286266654,931.0
0,934,0.4365130398,935.0
0,935,0.4682169234,935.0
0,934,0.499920807,936.0
0,931,0.5316246906,935.0
0,933,0.5554421998,931.0
0,934,0.6017002594,934.0
0,934,0.6241408098,935.0
0,935,0.6465813602,935.0
0,934,0.6690219106,936.0
0,931,0.691462461,935.0
0,933,0.691462461,931.0
0,935,0.6842543172,934.0
0,936,0.6770461734,934.0
0,934,0.6698380296,939.0
0,932,0.6626298858,935.0
0,933,0.655421742,931.0
0,935,0.655421742,934.0
0,935,0.655421742,936.0
0,936,0.655421742,936.0
0,936,0.655421742,934.0
0,933,0.655421742,934.0
0,931,0.6626298858,931.0
0,933,0.6698380296,931.0
0,931,0.6770461734,934.0
0,929,0.6842543172,931.0
0,932,0.691462461,931.0
0,929,0.6767522532,931.0
0,930,0.6620420454,931.0
0,931,0.6473318376,931.0
0,935,0.6090393454,931.0
0,933,0.5707468532,936.0
0,933,0.5471645688,931.0
0,930,0.5235822844,931.0
0,931,0.5079655674,931.0
0,929,0.5159311348,931.0
0,931,0.5238967022,931.0
0,933,0.539748644,931.0
0,936,0.5477142114,934.0
0,935,0.5477142114,936.0
0,934,0.5708329924,936.0
0,933,0.5939517734,935.0
0,935,0.60918418,931.0
0,937,0.632302961,936.0
0,938,0.655421742,939.0
0,935,0.632302961,940.0
0,931,0.60918418,936.0
0,930,0.586065399,931.0
0,932,0.5708329924,931.0
0,938,0.5161663596,931.0
0,937,0.4846185078,940.0
0,934,0.445568592,937.0
0,930,0.4065186762,935.0
0,933,0.359582386,931.0
0,934,0.352080322,935.0
0,934,0.367697039,935.0
0,933,0.39081582,935.0
0,931,0.413934601,931.0
0,929,0.437053382,931.0
0,927,0.4992220788,931.0
0,931,0.5382719946,923.0
0,931,0.5845300542,931.0
0,930,0.6307881138,931.0
0,930,0.6770461734,931.0
0,930,0.6842543172,931.0
0,930,0.691462461,931.0
0,933,0.691462461,931.0
0,935,0.691462461,934.0
0,933,0.691462461,936.0
0,931,0.6983193452,931.0
0,930,0.7051762294,931.0
0,931,0.7120331136,931.0
0,937,0.6817061888,931.0
0,939,0.651379264,939.0
0,939,0.614195455,940.0
0,938,0.577011646,940.0
0,938,0.539827837,940.0
0,938,0.5318622696,940.0
0,942,0.5238967022,940.0
0,943,0.4923488504,942.0
0,948,0.4532989346,942.0
0,948,0.4142490188,951.0
0,947,0.4142490188,951.0
0,947,0.4142490188,945.0
0,948,0.4378313032,945.0
0,949,0.4689156516,951.0
0,950,0.5079655674,952.0
0,952,0.5159311348,952.0
0,949,0.5238967022,952.0
0,950,0.5549810506,952.0
0,952,0.600130427,952.0
0,955,0.637314236,952.0
0,953,0.674498045,954.0
0,953,0.7048249698,952.0
0,953,0.7120331136,952.0
0,952,0.7051762294,952.0
0,953,0.6983193452,952.0
0,955,0.691462461,952.0
0,954,0.691462461,954.0
0,954,0.691462461,952.0
0,950,0.6842543172,954.0
0,949,0.6618137668,952.0
0,952,0.6393732164,952.0
0,954,0.6246630086,952.0
0,953,0.6099528008,954.0
0,953,0.6024507368,952.0
0,947,0.5786332276,952.0
0,948,0.5548157184,947.0
0,946,0.5232678666,952.0
0,950,0.4917200148,945.0
0,950,0.4681377304,952.0
0,949,0.4919552396,952.0
0,946,0.5157727488,952.0
0,948,0.539590258,945.0
0,949,0.5634077672,952.0
0,952,0.579259709,952.0
0,950,0.6085571436,952.0
0,949,0.6378545782,952.0
0,946,0.6671520128,952.0
0,944,0.6964494474,945.0
0,948,0.725746882,945.0
0,946,0.725746882,952.0
0,947,0.725746882,945.0
0,946,0.725746882,948.0
0,944,0.725746882,945.0
0,946,0.725746882,945.0
0,947,0.725746882,945.0
0,946,0.725746882,948.0
0,945,0.725746882,947.0
0,942,0.725746882,945.0
0,941,0.725746882,942.0
0,941,0.7188899978,942.0
0,943,0.7120331136,942.0
0,944,0.7051762294,942.0
0,945,0.6983193452,946.0
0,944,0.691462461,945.0
0,941,0.691462461,945.0
0,941,0.691462461,942.0
0,943,0.6842543172,942.0
0,944,0.6770461734,942.0
0,943,0.6698380296,945.0
0,945,0.6698380296,942.0
0,939,0.6698380296,945.0
0,942,0.6770461734,940.0
0,942,0.6842543172,942.0
0,939,0.691462461,942.0
0,942,0.691462461,940.0
0,942,0.691462461,942.0
0,939,0.691462461,942.0
0,942,0.691462461,940.0
0,942,0.691462461,942.0
0,948,0.6611355362,942.0
0,944,0.6308086114,952.0
0,943,0.6004816866,945.0
0,942,0.5701547618,942.0
0,943,0.539827837,942.0
0,945,0.539827837,944.0
0,947,0.539827837,945.0
0,948,0.539827837,946.0
0,950,0.539827837,952.0
0,949,0.539827837,952.0
0,951,0.5701547618,952.0
0,954,0.6004816866,952.0
0,955,0.6308086114,954.0
0,956,0.6611355362,954.0
0,956,0.691462461,959.0
0,955,0.6842543172,955.0
0,958,0.6770461734,954.0
0,960,0.6698380296,959.0
0,967,0.6626298858,959.0
0,965,0.655421742,964.0
0,964,0.655421742,964.0
0,964,0.655421742,963.0
0,967,0.655421742,963.0
0,968,0.655421742,964.0
0,967,0.655421742,965.0
0,965,0.6626298858,964.0
0,964,0.6698380296,964.0
0,964,0.6770461734,963.0
0,966,0.6911112014,963.0
0,967,0.7051762294,964.0
0,970,0.7120331136,964.0
0,972,0.7188899978,969.0
0,973,0.725746882,976.0
0,968,0.725746882,976.0
0,961,0.725746882,965.0
0,953,0.711681854,960.0
0,953,0.697616826,952.0
0,953,0.683551798,952.0
0,950,0.661984706,952.0
0,945,0.640417614,952.0
0,944,0.63291555,945.0
0,944,0.625413486,945.0
0,942,0.617911422,945.0
0,939,0.617911422,942.0
0,940,0.6101810794,940.0
0,937,0.6176831434,941.0
0,939,0.6251852074,939.0
0,941,0.6326872714,940.0
0,943,0.6326872714,941.0
0,942,0.640417614,944.0
0,939,0.63291555,942.0
0,938,0.625413486,940.0
0,938,0.617911422,940.0
0,942,0.617911422,940.0
0,941,0.617911422,942.0
0,940,0.625413486,941.0
0,940,0.63291555,941.0
0,934,0.6013676982,941.0
0,937,0.5857509812,935.0
0,935,0.5701342642,939.0
0,937,0.5470154832,933.0
0,935,0.5238967022,939.0
0,934,0.539827837,933.0
0,932,0.539827837,935.0
0,933,0.539827837,931.0
0,940,0.5160103278,935.0
0,939,0.4921928186,941.0
0,938,0.500079193,940.0
0,934,0.4762616838,940.0
0,923,0.444713832,935.0
0,914,0.4369834894,923.0
0,909,0.4292531468,918.0
0,906,0.3898189206,918.0
0,902,0.382088578,917.0
0,903,0.382088578,904.0
0,915,0.4056708624,904.0
0,943,0.4056708624,918.0
0,977,0.3660651718,942.0
0,1023,0.321378507,976.0
0,1079,0.2583222316,944.0
0,1137,0.1640655436,995.0
0,1177,0.09339114,1176.0
0,1195,0.0601519992,1103.0
0,1177,0.031201638,1200.0
0,1117,0.0183512238,1195.0
0,1029,0.0127045966,1163.0
0,954,0.0069931064,1063.0
0,911,0.003452044,953.0
0,901,0.000864875000001,918.0
0,906,0.001595782,903.0
0,919,0.0050719814,903.0
0,924,0.0086130438,919.0
0,924,0.014324534,923.0
0,922,0.0213170772,923.0
0,923,0.0430890782,923.0
0,926,0.0879089244,923.0
0,929,0.1763704728,923.0
0,930,0.3157765372,931.0
0,932,0.4537398498,931.0
0,929,0.5618102642,931.0
0,928,0.6445018822,931.0
0,930,0.683551798,923.0
0,931,0.66948677,931.0
0,929,0.655421742,931.0
0,928,0.655421742,931.0
0,926,0.655421742,923.0
0,926,0.655421742,923.0
0,926,0.655421742,923.0
0,929,0.655421742,923.0
0,928,0.6626298858,931.0
0,924,0.6698380296,931.0
0,924,0.6770461734,923.0
0,922,0.6842543172,923.0
0,927,0.691462461,923.0
0,927,0.691462461,931.0
0,930,0.691462461,931.0
0,926,0.6842543172,931.0
0,927,0.6770461734,923.0
0,925,0.6698380296,931.0
0,926,0.6626298858,923.0
0,928,0.6626298858,923.0
0,925,0.6626298858,931.0
0,923,0.6626298858,923.0
0,922,0.6626298858,923.0
0,924,0.6626298858,923.0
0,928,0.655421742,923.0
0,930,0.6626298858,931.0
0,928,0.6698380296,931.0
0,926,0.6770461734,931.0
0,924,0.6842543172,923.0
0,924,0.691462461,923.0
0,927,0.691462461,923.0
0,928,0.691462461,931.0
0,929,0.691462461,931.0
0,926,0.691462461,931.0
0,923,0.691462461,923.0
0,925,0.6983193452,923.0
0,927,0.7051762294,923.0
0,927,0.7120331136,931.0
0,927,0.7188899978,931.0
0,925,0.725746882,931.0
0,922,0.725746882,923.0
0,923,0.7188899978,923.0
0,923,0.7120331136,923.0
0,925,0.7051762294,923.0
0,927,0.6983193452,923.0
0,927,0.691462461,931.0
0,922,0.6842543172,931.0
0,925,0.6770461734,923.0
0,926,0.6698380296,923.0
0,927,0.6551278218,931.0
0,925,0.640417614,931.0
0,922,0.63291555,923.0
0,922,0.625413486,923.0
0,921,0.617911422,923.0
0,924,0.617911422,923.0
0,926,0.617911422,923.0
0,930,0.602294705,931.0
0,926,0.5787124206,931.0
0,924,0.5630957036,923.0
0,925,0.5474789866,923.0
0,926,0.5318622696,923.0
0,926,0.5318622696,931.0
0,926,0.5318622696,931.0
0,923,0.5238967022,931.0
0,918,0.500079193,923.0
0,919,0.4841480582,919.0
0,919,0.4841480582,919.0
0,920,0.5,919.0
0,918,0.5158519418,919.0
0,918,0.5475558254,919.0
0,916,0.5713733346,919.0
0,916,0.5869900516,919.0
0,917,0.5947203942,919.0
0,920,0.6024507368,919.0
0,921,0.6317481714,919.0
0,919,0.661045606,923.0
0,919,0.682612698,919.0
0,918,0.70417979,919.0
0,921,0.725746882,919.0
0,922,0.725746882,923.0
0,923,0.725746882,923.0
0,921,0.725746882,923.0
0,920,0.725746882,919.0
0,923,0.725746882,919.0
0,927,0.7188899978,923.0
0,931,0.7048249698,931.0
0,935,0.6676411608,931.0
0,934,0.6304573518,936.0
0,936,0.5932735428,935.0
0,938,0.562946618,934.0
0,943,0.5082799852,940.0
0,947,0.4767321334,942.0
0,947,0.4451842816,948.0
0,948,0.4136364298,948.0
0,949,0.3898189206,952.0
0,948,0.4054356376,952.0
0,949,0.4448698638,949.0
0,951,0.48430409,952.0
0,950,0.5237383162,952.0
0,949,0.5554421998,952.0
0,947,0.6085571436,952.0
0,947,0.6378545782,948.0
0,948,0.6671520128,948.0
0,954,0.6895925632,949.0
0,952,0.7120331136,953.0
0,952,0.7051762294,952.0
0,950,0.6983193452,952.0
0,951,0.691462461,952.0
0,954,0.691462461,952.0
0,954,0.6842543172,953.0
0,953,0.6695441094,954.0
0,952,0.6548339016,952.0
0,949,0.6401236938,952.0
0,952,0.63291555,952.0
0,952,0.63291555,952.0
0,953,0.640417614,952.0
0,953,0.647919678,952.0
0,953,0.655421742,952.0
0,950,0.655421742,952.0
0,952,0.6626298858,952.0
0,954,0.6698380296,952.0
0,957,0.6770461734,953.0
0,954,0.6842543172,959.0
0,952,0.6842543172,952.0
0,949,0.6770461734,952.0
0,950,0.6698380296,952.0
0,949,0.6626298858,952.0
0,953,0.655421742,952.0
0,952,0.655421742,952.0
0,951,0.655421742,952.0
0,947,0.647919678,952.0
0,949,0.640417614,948.0
0,950,0.640417614,952.0
0,953,0.640417614,952.0
0,952,0.640417614,952.0
0,950,0.647919678,952.0
0,948,0.655421742,952.0
0,948,0.655421742,949.0
0,952,0.655421742,949.0
0,952,0.655421742,952.0
0,950,0.655421742,952.0
0,950,0.655421742,952.0
0,947,0.655421742,952.0
0,950,0.655421742,948.0
0,950,0.655421742,952.0
0,950,0.655421742,952.0
0,949,0.655421742,952.0
0,948,0.655421742,952.0
0,944,0.655421742,949.0
0,946,0.655421742,945.0
0,948,0.66948677,947.0
0,950,0.683551798,949.0
0,950,0.697616826,952.0
0,948,0.711681854,952.0
0,944,0.725746882,950.0
0,947,0.725746882,945.0
0,948,0.725746882,948.0
0,949,0.725746882,950.0
0,949,0.725746882,952.0
0,950,0.725746882,950.0
0,948,0.711681854,952.0
0,949,0.697616826,949.0
0,950,0.683551798,952.0
0,954,0.66948677,952.0
0,954,0.647919678,953.0
0,950,0.5932530452,952.0
0,948,0.4989807218,950.0
0,949,0.3812578136,945.0
0,950,0.2537463494,955.0
0,952,0.1308574598,954.0
0,952,0.0549507702,950.0
0,952,0.0184087248,950.0
0,951,0.0051847122,952.0
0,954,0.0016792138,952.0
0,956,0.0010002886,961.0
0,961,0.000510822600001,958.0
0,960,0.000262403000001,958.0
0,960,0.000192361200001,959.0
0,960,0.000394955000001,960.0
0,964,0.0010738802,960.0
0,968,0.0014254828,964.0
0,969,0.0016739024,940.0
0,970,0.0018764962,939.0
0,971,0.0018764962,941.0
0,972,0.001556264,942.0
0,974,0.002115339,936.0
0,976,0.004626049,938.0
0,982,0.0065008914,936.0
0,981,0.0074728448,933.0
0,978,0.0087391894,940.0
0,977,0.0105876414,982.0
0,976,0.0123569782,982.0
0,976,0.0159554682,976.0
0,975,0.0236266278,976.0
0,979,0.032946979,976.0
0,979,0.0435277296,976.0
0,975,0.0583378002,976.0
0,973,0.0756084222,976.0
0,975,0.1035073546,974.0
0,976,0.134918576,976.0
0,978,0.1699498662,976.0
0,978,0.2054403928,976.0
0,976,0.2247975386,976.0
0,984,0.2247975386,976.0
0,989,0.2017865558,981.0
0,986,0.162306918,936.0
0,977,0.1120063208,936.0
0,968,0.0741852674,976.0
0,962,0.0395180644,969.0
0,964,0.0213999004,938.0
0,962,0.0134190454,968.0
0,961,0.009380045,960.0
0,958,0.0053410446,960.0
0,953,0.0038896174,960.0
0,950,0.0047925064,952.0
0,950,0.0084102952,952.0
0,949,0.015085333,952.0
0,953,0.0191243334,950.0
0,953,0.029390797,952.0
0,951,0.0433973068,952.0
0,947,0.0498071388,952.0
0,951,0.048364387,941.0
0,950,0.054774219,952.0
0,951,0.054774219,952.0
0,951,0.0579829842,950.0
0,947,0.0663832228,950.0
0,945,0.074001351,949.0
0,945,0.0860554266,942.0
0,946,0.0981095022,945.0
0,948,0.1017633392,945.0
0,949,0.1192152672,949.0
0,946,0.1747694786,950.0
0,945,0.2206711962,948.0
0,946,0.2740749778,945.0
0,947,0.3274787594,945.0
0,950,0.382701167,949.0
0,948,0.4137855154,952.0
0,945,0.4369042964,949.0
0,940,0.4369042964,945.0
0,933,0.4088793112,938.0
0,928,0.365237609,931.0
0,925,0.3136303394,931.0
0,920,0.2699886372,923.0
0,912,0.2359420014,919.0
0,908,0.2299203508,918.0
0,916,0.2238987002,903.0
0,939,0.2178770496,919.0
0,966,0.1924982532,940.0
0,996,0.1694872704,962.0
0,1032,0.1694872704,998.0
0,1080,0.1588472414,1063.0
0,1138,0.1482072124,1137.0
0,1185,0.1385547186,1177.0
0,1213,0.13015448,1207.0
0,1212,0.094969464,1160.0
0,1174,0.0653832352,1160.0
0,1099,0.0372250686,1195.0
0,1011,0.0296069404,1018.0
0,945,0.0231971084,1035.0
0,915,0.0176505518,945.0
0,908,0.019078614,918.0
0,917,0.019078614,916.0
0,928,0.0242951604,919.0
0,938,0.0242951604,931.0
0,942,0.0315687458,940.0
0,942,0.0473559586,942.0
0,938,0.0599344062,942.0
0,937,0.07610776,940.0
0,933,0.1264083572,939.0
0,936,0.2016433228,931.0
0,937,0.266431284,934.0
0,941,0.3344280104,939.0
0,942,0.3914428564,941.0
0,940,0.4601745172,942.0
0,938,0.4996087434,941.0
0,939,0.5390429696,940.0
0,941,0.5931874036,940.0
0,941,0.6473318376,941.0
0,943,0.6473318376,941.0
0,939,0.6473318376,942.0
0,939,0.6473318376,940.0
0,938,0.6326216298,940.0
0,939,0.617911422,940.0
0,942,0.617911422,940.0
0,940,0.617911422,942.0
0,937,0.617911422,941.0
0,935,0.617911422,937.0
0,937,0.617911422,934.0
0,940,0.6326216298,939.0
0,941,0.6473318376,941.0
0,943,0.6548339016,941.0
0,940,0.6548339016,942.0
0,936,0.6392171846,941.0
0,938,0.6088902598,934.0
0,939,0.578563335,939.0
0,942,0.555444554,940.0
0,941,0.539827837,942.0
0,941,0.539827837,941.0
0,939,0.5318622696,941.0
0,941,0.5238967022,940.0
0,944,0.500079193,941.0
0,944,0.4762616838,946.0
0,944,0.4762616838,945.0
0,941,0.4842272512,945.0
0,936,0.4531429028,941.0
0,939,0.4379104962,934.0
0,940,0.4226780896,941.0
0,943,0.3631052526,941.0
0,943,0.3099903088,944.0
0,941,0.2959252808,942.0
0,939,0.2959252808,941.0
0,937,0.2959252808,940.0
0,941,0.316448202,935.0
0,941,0.33051323,941.0
0,942,0.3756626064,941.0
0,941,0.4067469548,942.0
0,939,0.4298657358,941.0
0,942,0.476802026,940.0
0,943,0.5078863744,942.0
0,944,0.5078863744,944.0
0,943,0.5158519418,944.0
0,943,0.5317830766,942.0
0,942,0.5238967022,942.0
0,943,0.5318622696,942.0
0,947,0.5318622696,944.0
0,947,0.5238967022,949.0
0,946,0.5317830766,949.0
0,944,0.539669451,945.0
0,940,0.5699963758,944.0
0,942,0.608288868,941.0
0,945,0.6162544354,942.0
0,945,0.608368061,945.0
0,945,0.6004816866,945.0
0,943,0.5701547618,945.0
0,940,0.5477142114,942.0
0,939,0.5556005858,941.0
0,945,0.5317830766,940.0
0,944,0.5079655674,945.0
0,942,0.4841480582,944.0
0,942,0.4524441746,942.0
0,938,0.4365922328,942.0
0,935,0.4288618902,939.0
0,940,0.4136294836,934.0
0,937,0.398397077,941.0
0,939,0.3831646704,935.0
0,938,0.352080322,940.0
0,935,0.3756626064,939.0
0,936,0.4067469548,934.0
0,939,0.4378313032,934.0
0,943,0.4453333672,940.0
0,941,0.4684521482,944.0
0,940,0.48430409,941.0
0,938,0.5001560318,941.0
0,940,0.5160079736,939.0
0,943,0.5316246906,941.0
0,946,0.5316246906,944.0
0,945,0.5078071814,945.0
0,943,0.4839896722,945.0
0,942,0.460172163,942.0
0,943,0.4839896722,942.0
0,948,0.499920807,942.0
0,953,0.5158519418,949.0
0,956,0.5317830766,952.0
0,957,0.539748644,955.0
0,955,0.5474789866,961.0
0,957,0.555365361,961.0
0,962,0.5394342262,955.0
0,962,0.515616717,961.0
0,964,0.4920344326,961.0
0,963,0.4373677998,962.0
0,963,0.3979335736,962.0
0,965,0.3823168566,962.0
0,970,0.36708445,963.0
0,972,0.359582386,971.0
0,971,0.3523742422,972.0
0,972,0.3448721782,972.0
0,967,0.3448721782,971.0
0,969,0.3523742422,962.0
0,971,0.3754930232,972.0
0,971,0.405819948,972.0
0,971,0.428938729,972.0
0,969,0.444555446,972.0
0,966,0.4681377304,971.0
0,968,0.4761032978,963.0
0,970,0.4920344326,969.0
0,970,0.5079655674,971.0
0,969,0.5395134192,971.0
0,971,0.5705977676,971.0
0,968,0.594180052,971.0
0,967,0.609796769,969.0
0,969,0.625413486,969.0
0,971,0.625413486,971.0
0,970,0.625413486,971.0
0,968,0.6401236938,971.0
0,967,0.6548339016,969.0
0,968,0.6695441094,969.0
0,969,0.6842543172,969.0
0,972,0.691462461,971.0
0,969,0.691462461,971.0
0,967,0.6983193452,971.0
0,965,0.7051762294,969.0
0,965,0.7120331136,963.0
0,970,0.7188899978,963.0
0,970,0.725746882,969.0
0,969,0.725746882,969.0
0,967,0.725746882,971.0
0,967,0.725746882,969.0
0,967,0.725746882,969.0
0,968,0.725746882,969.0
0,971,0.725746882,967.0
0,967,0.725746882,971.0
0,968,0.725746882,967.0
0,963,0.7188899978,967.0
0,964,0.7120331136,963.0
0,963,0.7120331136,963.0
0,967,0.7051762294,964.0
0,966,0.6983193452,967.0
0,965,0.6983193452,967.0
0,960,0.6911112014,963.0
0,962,0.6695441094,960.0
0,961,0.6548339016,964.0
0,966,0.6323933512,960.0
0,963,0.6099528008,965.0
0,962,0.5947203942,963.0
0,960,0.5869900516,961.0
0,962,0.579259709,960.0
0,965,0.579259709,960.0
0,968,0.579259709,963.0
0,966,0.5869900516,967.0
0,964,0.6022224582,965.0
0,962,0.6174548648,963.0
0,962,0.6467522994,962.0
0,964,0.676049734,962.0
0,965,0.697616826,963.0
0,965,0.711681854,963.0
0,962,0.725746882,965.0
0,960,0.725746882,962.0
0,962,0.725746882,962.0
0,963,0.725746882,962.0
0,965,0.725746882,962.0
0,963,0.725746882,965.0
0,963,0.725746882,962.0
0,962,0.725746882,962.0
0,963,0.725746882,962.0
0,967,0.725746882,962.0
0,967,0.725746882,965.0
0,970,0.725746882,967.0
0,970,0.725746882,969.0
0,972,0.725746882,969.0
0,973,0.725746882,971.0
0,976,0.725746882,971.0
0,980,0.7188899978,976.0
0,982,0.6895925632,978.0
0,979,0.6602951286,981.0
0,976,0.6231113196,976.0
0,980,0.5859275106,976.0
0,981,0.5556005858,976.0
0,985,0.5317830766,978.0
0,984,0.4923488504,977.0
0,985,0.4460907908,989.0
0,981,0.392975847,984.0
0,983,0.3398609032,976.0
0,987,0.3242441862,981.0
0,990,0.3167421222,981.0
0,991,0.3167421222,986.0
0,991,0.3167421222,986.0
0,988,0.310284229,986.0
0,986,0.288717137,986.0
0,986,0.296219201,981.0
0,988,0.3265461258,981.0
0,987,0.3637299348,986.0
0,986,0.407371637,986.0
0,985,0.4525210134,986.0
0,987,0.4840688652,986.0
0,990,0.5078863744,986.0
0,997,0.5394342262,986.0
0,1000,0.5632517354,1032.0
0,996,0.555286168,1046.0
0,984,0.5237383162,1000.0
0,980,0.48430409,985.0
0,977,0.4448698638,976.0
0,973,0.4054356376,976.0
0,973,0.3898189206,976.0
0,969,0.3898189206,976.0
0,965,0.3823168566,967.0
0,962,0.374586514,963.0
0,963,0.390203231,962.0
0,965,0.4373677998,963.0
0,966,0.4992425764,963.0
0,964,0.568619417,965.0
0,960,0.6304941936,963.0
0,963,0.6836091374,962.0
0,964,0.7051762294,963.0
0,965,0.7120331136,963.0
0,965,0.7188899978,965.0
0,959,0.725746882,965.0
0,958,0.7188899978,960.0
0,957,0.7120331136,962.0
0,959,0.6979680856,955.0
0,962,0.6839030576,960.0
0,959,0.6698380296,963.0
0,959,0.6626298858,962.0
0,955,0.655421742,962.0
0,958,0.6401893354,955.0
0,958,0.6170705544,959.0
0,957,0.5939517734,959.0
0,959,0.562867425,955.0
0,955,0.5317830766,962.0
0,953,0.500079193,955.0
0,951,0.4685313412,952.0
0,946,0.4154163974,952.0
0,942,0.370267021,945.0
0,936,0.3251176446,942.0
0,933,0.309885238,939.0
0,923,0.302383174,931.0
0,919,0.302383174,923.0
0,915,0.316448202,919.0
0,919,0.33051323,918.0
0,939,0.353632011,919.0
0,959,0.3464238672,940.0
0,978,0.3532807514,959.0
0,997,0.3392157234,976.0
0,1017,0.3071120968,984.0
0,1043,0.231228996,944.0
0,1082,0.1740715146,1101.0
0,1127,0.114003514,1137.0
0,1165,0.05942287,1170.0
0,1197,0.0228043656,1195.0
0,1220,0.0068465544,1200.0
0,1230,0.003538461,1212.0
0,1225,0.0022721164,1242.0
0,1186,0.0020988216,1242.0
0,1103,0.0019371228,1213.0
0,1002,0.001790128,1018.0
0,940,0.000741715600001,1046.0
0,923,0.000562073600001,941.0
0,927,0.0013976264,923.0
0,936,0.0015593252,931.0
0,944,0.0016094842,939.0
0,950,0.0014833494,944.0
0,947,0.0015598084,952.0
0,949,0.0018695038,945.0
0,948,0.0074192952,950.0
0,947,0.0206840506,949.0
0,945,0.0399767618,949.0
0,948,0.0880995126,945.0
0,948,0.1417082032,949.0
0,950,0.2359648912,949.0
0,948,0.3305690184,952.0
0,946,0.4270608632,949.0
0,946,0.5097524812,945.0
0,946,0.585986206,945.0
0,948,0.6170705544,945.0
0,949,0.6401893354,949.0
0,948,0.655421742,950.0
0,948,0.655421742,949.0
0,944,0.655421742,949.0
0,945,0.655421742,944.0
0,945,0.66948677,945.0
0,947,0.683551798,945.0
0,947,0.697616826,948.0
0,944,0.711681854,948.0
0,942,0.725746882,945.0
0,943,0.725746882,942.0
0,945,0.725746882,942.0
0,944,0.725746882,945.0
0,947,0.725746882,945.0
0,946,0.725746882,948.0
0,942,0.725746882,945.0
0,945,0.725746882,942.0
0,947,0.725746882,945.0
0,948,0.725746882,948.0
0,951,0.725746882,949.0
0,948,0.7188899978,952.0
0,945,0.7120331136,948.0
0,944,0.7051762294,945.0
0,946,0.6983193452,945.0
0,946,0.691462461,945.0
0,949,0.691462461,945.0
0,946,0.691462461,948.0
0,946,0.691462461,945.0
0,946,0.691462461,946.0
0,946,0.691462461,946.0
0,947,0.6983193452,946.0
0,947,0.7051762294,946.0
0,944,0.7120331136,946.0
0,942,0.7188899978,945.0
0,944,0.725746882,942.0
0,947,0.725746882,944.0
0,948,0.725746882,946.0
0,947,0.725746882,948.0
0,945,0.725746882,948.0
0,945,0.725746882,945.0
0,946,0.725746882,945.0
0,946,0.725746882,946.0
0,948,0.725746882,946.0
0,949,0.725746882,948.0
0,948,0.725746882,948.0
0,946,0.725746882,949.0
0,947,0.725746882,946.0
0,949,0.725746882,948.0
0,950,0.725746882,948.0
0,949,0.725746882,948.0
0,948,0.725746882,948.0
0,946,0.725746882,949.0
0,945,0.725746882,946.0
0,946,0.725746882,945.0
0,944,0.725746882,946.0
0,947,0.725746882,946.0
0,944,0.725746882,948.0
0,945,0.725746882,946.0
0,943,0.725746882,945.0
0,944,0.725746882,942.0
0,947,0.725746882,945.0
0,945,0.725746882,948.0
0,943,0.725746882,945.0
0,940,0.725746882,942.0
0,942,0.725746882,941.0
0,944,0.6964494474,942.0
0,945,0.6671520128,945.0
0,945,0.6378545782,945.0
0,943,0.6085571436,945.0
0,942,0.579259709,942.0
0,945,0.579259709,942.0
0,947,0.579259709,945.0
0,948,0.579259709,948.0
0,948,0.579259709,946.0
0,948,0.579259709,948.0
0,947,0.6085571436,948.0
0,947,0.6378545782,948.0
0,954,0.6530869848,948.0
0,955,0.6608173274,953.0
0,955,0.6608173274,955.0
0,956,0.6236335184,956.0
0,954,0.578484142,957.0
0,957,0.5315478518,956.0
0,961,0.462816191,955.0
0,964,0.4018148728,962.0
0,959,0.348699929,963.0
0,962,0.3035505526,959.0
0,960,0.288318146,963.0
0,961,0.309885238,962.0
0,963,0.33145233,962.0
0,967,0.3607497646,963.0
0,967,0.3979335736,965.0
0,965,0.4448698638,965.0
0,962,0.5067446404,965.0
0,962,0.568619417,963.0
0,965,0.622763851,963.0
0,968,0.6690219106,965.0
0,967,0.6983193452,967.0
0,966,0.7051762294,965.0
0,965,0.7120331136,965.0
0,966,0.7188899978,965.0
0,966,0.725746882,965.0
0,969,0.725746882,965.0
0,968,0.725746882,967.0
0,968,0.725746882,967.0
0,966,0.725746882,967.0
0,968,0.725746882,965.0
0,968,0.725746882,967.0
0,969,0.725746882,967.0
0,969,0.725746882,967.0
0,967,0.725746882,967.0
0,964,0.725746882,965.0
0,966,0.725746882,965.0
0,967,0.725746882,965.0
0,965,0.725746882,965.0
0,965,0.725746882,965.0
0,965,0.725746882,965.0
0,961,0.725746882,965.0
0,962,0.725746882,962.0
0,963,0.725746882,962.0
0,962,0.725746882,962.0
0,965,0.725746882,962.0
0,963,0.725746882,965.0
0,958,0.7188899978,962.0
0,960,0.7120331136,962.0
0,961,0.7051762294,962.0
0,963,0.6983193452,962.0
0,962,0.6983193452,962.0
0,961,0.7051762294,962.0
0,958,0.7120331136,962.0
0,961,0.7188899978,962.0
0,963,0.725746882,962.0
0,963,0.725746882,962.0
0,963,0.725746882,963.0
0,963,0.725746882,963.0
0,960,0.725746882,963.0
0,956,0.725746882,962.0
0,957,0.725746882,955.0
0,961,0.6964494474,955.0
0,957,0.6671520128,963.0
0,956,0.6299682038,955.0
0,954,0.5848188274,955.0
0,955,0.5317038836,955.0
0,956,0.5,955.0
0,958,0.4605657738,956.0
0,955,0.421515858,962.0
0,954,0.3832233658,955.0
0,952,0.3395816636,955.0
0,954,0.3171411132,952.0
0,956,0.3024309054,955.0
0,956,0.2952227616,955.0
0,958,0.2952227616,955.0
0,957,0.3157456828,962.0
0,956,0.3304558906,955.0
0,955,0.3451660984,955.0
0,956,0.3598763062,955.0
0,957,0.390203231,955.0
0,957,0.4212875794,957.0
0,957,0.4448698638,955.0
0,955,0.4764177156,955.0
0,957,0.5,955.0
0,958,0.5079655674,955.0
0,960,0.5079655674,957.0
0,958,0.5079655674,962.0
0,959,0.5,960.0
0,957,0.5079655674,962.0
0,957,0.5159311348,955.0
0,961,0.5079655674,955.0
0,962,0.5079655674,963.0
0,961,0.5079655674,963.0
0,960,0.5079655674,963.0
0,958,0.5158519418,962.0
0,960,0.539669451,959.0
0,960,0.5555213928,962.0
0,966,0.5713733346,962.0
0,967,0.579259709,965.0
0,966,0.579259709,965.0
0,966,0.6017002594,965.0
0,968,0.6241408098,965.0
0,971,0.6465813602,967.0
0,974,0.6690219106,969.0
0,976,0.6842543172,976.0
0,975,0.6770461734,976.0
0,974,0.6770461734,976.0
0,973,0.6770461734,976.0
0,977,0.6698380296,976.0
0,980,0.6698380296,976.0
0,981,0.6698380296,976.0
0,980,0.6626298858,976.0
0,980,0.655421742,981.0
0,981,0.6626298858,981.0
0,984,0.6626298858,980.0
0,987,0.6626298858,985.0
0,989,0.6698380296,986.0
0,986,0.6770461734,986.0
0,980,0.6770461734,986.0
0,980,0.6842543172,981.0
0,981,0.691462461,981.0
0,983,0.691462461,980.0
0,986,0.691462461,981.0
0,984,0.691462461,986.0
0,981,0.6983193452,980.0
0,984,0.7051762294,980.0
0,989,0.7120331136,981.0
0,990,0.7188899978,986.0
0,985,0.725746882,986.0
0,976,0.7188899978,986.0
0,970,0.7048249698,976.0
0,970,0.6907599418,969.0
0,970,0.6766949138,969.0
0,966,0.6626298858,970.0
0,962,0.655421742,965.0
0,960,0.655421742,963.0
0,956,0.655421742,962.0
0,953,0.632302961,955.0
0,954,0.60918418,952.0
0,956,0.586065399,955.0
0,954,0.562946618,955.0
0,952,0.5160103278,955.0
0,950,0.4921928186,954.0
0,949,0.4606449668,948.0
0,950,0.429097115,948.0
0,951,0.3975492632,949.0
0,952,0.3823168566,952.0
0,949,0.3823168566,954.0
0,948,0.3900471992,948.0
0,950,0.4056639162,948.0
0,949,0.4292462006,949.0
0,950,0.4839128334,948.0
0,949,0.5233470596,949.0
0,946,0.5627812858,948.0
0,945,0.5943291376,946.0
0,946,0.625413486,945.0
0,947,0.6401236938,946.0
0,951,0.6548339016,948.0
0,952,0.6695441094,952.0
0,951,0.6695441094,954.0
0,950,0.6543117028,949.0
0,948,0.6318711524,949.0
0,948,0.609430602,948.0
0,945,0.5869900516,948.0
0,936,0.5554421998,945.0
0,928,0.5237383162,939.0
0,922,0.48430409,931.0
0,923,0.4448698638,923.0
0,923,0.4054356376,923.0
0,916,0.3975492632,923.0
0,907,0.4054356376,919.0
0,904,0.4210523546,917.0
0,914,0.4366690716,917.0
0,936,0.4522857886,919.0
0,959,0.460172163,939.0
0,991,0.4165304608,960.0
0,1023,0.3793466518,986.0
0,1071,0.3241242442,1079.0
0,1120,0.2482411434,982.0
0,1166,0.1671665692,1029.0
0,1189,0.1259599026,1195.0
0,1195,0.073254101,1103.0
0,1162,0.037684009,1200.0
0,1088,0.0219058398,1195.0
0,1005,0.011139502,1137.0
0,940,0.0051953712,1052.0
0,914,0.0032440698,941.0
0,914,0.0025131628,919.0
0,928,0.0049206898,919.0
0,935,0.0068719912,931.0
0,935,0.0092029424,936.0
0,937,0.0199692802,934.0
0,934,0.035609586,939.0
0,938,0.0645599472,935.0
0,936,0.124122633,940.0
0,938,0.1754003724,934.0
0,936,0.2564749466,939.0
0,934,0.3323580474,934.0
0,936,0.3926614292,935.0
0,938,0.4545362058,934.0
0,938,0.5232678666,939.0
0,932,0.5232678666,939.0
0,935,0.5001490856,931.0
0,935,0.4770303046,936.0
0,936,0.4298657358,934.0
0,936,0.382701167,934.0
0,937,0.382701167,934.0
0,933,0.405819948,939.0
0,934,0.428938729,931.0
0,934,0.444555446,935.0
0,937,0.460172163,935.0
0,939,0.4917200148,939.0
0,937,0.5448349586,940.0
0,935,0.5979499024,939.0
0,935,0.6510648462,936.0
0,937,0.70417979,936.0
0,938,0.725746882,939.0
0,941,0.725746882,939.0
0,941,0.725746882,941.0
0,939,0.7188899978,941.0
0,935,0.7120331136,940.0
0,937,0.7051762294,934.0
0,938,0.6983193452,939.0
0,940,0.691462461,939.0
0,940,0.6842543172,941.0
0,937,0.6770461734,941.0
0,934,0.6698380296,935.0
0,931,0.6626298858,935.0
0,934,0.6401893354,931.0
0,935,0.6401893354,935.0
0,934,0.6401893354,934.0
0,932,0.6401893354,935.0
0,932,0.6401893354,931.0
0,932,0.655421742,931.0
0,934,0.6401893354,931.0
0,934,0.6249569288,935.0
0,935,0.6097245222,935.0
0,933,0.5944921156,934.0
0,932,0.5944921156,931.0
0,934,0.5944921156,931.0
0,935,0.5944921156,935.0
0,937,0.5944921156,934.0
0,940,0.5944921156,939.0
0,938,0.579259709,941.0
0,934,0.579259709,940.0
0,938,0.579259709,935.0
0,937,0.579259709,940.0
0,940,0.579259709,939.0
0,939,0.579259709,941.0
0,938,0.5944921156,940.0
0,933,0.5786401738,940.0
0,934,0.562788232,931.0
0,936,0.5469362902,935.0
0,940,0.5310843484,934.0
0,939,0.5235822844,941.0
0,939,0.5471645688,940.0
0,934,0.5551301362,940.0
0,936,0.5630957036,935.0
0,937,0.571061271,934.0
0,938,0.555444554,939.0
0,934,0.5477142114,939.0
0,935,0.5556005858,935.0
0,933,0.5634869602,934.0
0,934,0.5713733346,931.0
0,934,0.579259709,935.0
0,933,0.579259709,935.0
0,930,0.5944921156,931.0
0,928,0.6097245222,931.0
0,929,0.6249569288,931.0
0,933,0.6401893354,931.0
0,933,0.6626298858,934.0
0,935,0.6698380296,931.0
0,937,0.6770461734,934.0
0,933,0.6842543172,939.0
0,930,0.691462461,931.0
0,929,0.691462461,931.0
0,932,0.691462461,931.0
0,935,0.6842543172,931.0
0,935,0.6770461734,937.0
0,934,0.6698380296,937.0
0,935,0.6626298858,935.0
0,937,0.655421742,934.0
0,939,0.655421742,939.0
0,943,0.632302961,940.0
0,947,0.6012186126,942.0
0,944,0.5701342642,948.0
0,947,0.5390499158,945.0
0,948,0.5238175092,948.0
0,951,0.5317038836,948.0
0,951,0.5475558254,952.0
0,954,0.5317038836,950.0
0,952,0.4934113914,955.0
0,951,0.4324100732,951.0
0,951,0.392975847,950.0
0,953,0.3255166356,950.0
0,953,0.2897613078,952.0
0,956,0.264865825,952.0
0,955,0.2468272264,955.0
0,953,0.1934234448,955.0
0,954,0.1643908114,952.0
0,958,0.1477291318,952.0
0,959,0.1532881866,960.0
0,958,0.164868892,960.0
0,956,0.1967055816,960.0
0,955,0.2614935428,957.0
0,956,0.3139105502,957.0
0,958,0.363573903,957.0
0,960,0.4072156052,960.0
0,961,0.4682169234,960.0
0,960,0.5076511496,963.0
0,958,0.5617955836,960.0
0,958,0.6080536432,960.0
0,958,0.6543117028,960.0
0,955,0.6767522532,960.0
0,959,0.6767522532,955.0
0,957,0.6620420454,960.0
0,956,0.6548339016,955.0
0,955,0.6476257578,955.0
0,956,0.63291555,956.0
0,956,0.6251852074,958.0
0,958,0.6095684904,958.0
0,955,0.5864497094,960.0
0,953,0.5395134192,955.0
0,953,0.500079193,952.0
0,955,0.4762616838,952.0
0,956,0.460330549,955.0
0,955,0.4443994142,958.0
0,952,0.4366690716,956.0
0,950,0.428938729,951.0
0,952,0.3986118042,948.0
0,954,0.3489484514,954.0
0,955,0.2992850986,956.0
0,952,0.259679408,956.0
0,951,0.2200737174,951.0
0,946,0.1951782346,950.0
0,946,0.179940367,946.0
0,950,0.1647024994,946.0
0,950,0.1647024994,949.0
0,951,0.1596215252,948.0
0,949,0.16518058,951.0
0,949,0.2069630194,948.0
0,949,0.2487454588,948.0
0,950,0.3039678664,948.0
0,950,0.3722368156,949.0
0,949,0.4378313032,948.0
0,948,0.492497936,950.0
0,945,0.5471645688,948.0
0,944,0.570982078,945.0
0,945,0.6020664264,945.0
0,947,0.6251852074,945.0
0,949,0.6398954152,948.0
0,948,0.654605623,950.0
0,945,0.6770461734,948.0
0,944,0.6842543172,945.0
0,945,0.691462461,945.0
0,946,0.691462461,945.0
0,948,0.691462461,946.0
0,946,0.6983193452,948.0
0,943,0.6911112014,946.0
0,942,0.6839030576,942.0
0,943,0.6766949138,942.0
0,946,0.66948677,942.0
0,945,0.655421742,946.0
0,945,0.655421742,945.0
0,944,0.655421742,945.0
0,944,0.655421742,945.0
0,946,0.655421742,945.0
0,947,0.655421742,946.0
0,947,0.66948677,948.0
0,944,0.683551798,948.0
0,944,0.697616826,945.0
0,944,0.711681854,945.0
0,945,0.725746882,945.0
0,949,0.725746882,945.0
0,947,0.725746882,948.0
0,945,0.725746882,948.0
0,945,0.725746882,945.0
0,947,0.725746882,945.0
0,946,0.725746882,948.0
0,948,0.725746882,945.0
0,947,0.725746882,948.0
0,949,0.725746882,948.0
0,949,0.725746882,948.0
0,952,0.7188899978,948.0
0,954,0.7120331136,954.0
0,956,0.6904660216,956.0
0,958,0.661168587,1252.0
0,956,0.6318711524,960.0
0,958,0.6015442276,955.0
0,962,0.539669451,956.0
0,964,0.4925048822,963.0
0,966,0.453070656,963.0
0,967,0.4136364298,965.0
0,967,0.382088578,965.0
0,966,0.3898189206,965.0
0,968,0.413401205,965.0
0,971,0.4369834894,967.0
0,972,0.4685313412,969.0
0,975,0.5079655674,969.0
0,973,0.5621100014,976.0
0,972,0.6004024936,976.0
0,971,0.64555187,969.0
0,970,0.682735679,972.0
0,967,0.7120331136,970.0
0,969,0.7188899978,967.0
0,968,0.725746882,967.0
0,968,0.725746882,967.0
0,966,0.725746882,967.0
0,970,0.725746882,965.0
0,972,0.725746882,970.0
0,974,0.725746882,971.0
0,977,0.725746882,976.0
0,972,0.725746882,976.0
0,964,0.711681854,971.0
0,961,0.697616826,963.0
0,960,0.683551798,960.0
0,959,0.66948677,960.0
0,957,0.655421742,960.0
0,953,0.632302961,955.0
0,953,0.6012186126,954.0
0,952,0.5701342642,954.0
0,953,0.5310843484,951.0
0,946,0.4617075078,952.0
0,944,0.430159656,946.0
0,942,0.4065773716,945.0
0,937,0.3829950872,942.0
0,941,0.3673783702,939.0
0,943,0.3673783702,941.0
0,944,0.3673783702,942.0
0,942,0.3751087128,945.0
0,939,0.3828390554,942.0
0,943,0.3681288476,940.0
0,943,0.4064213398,944.0
0,945,0.4300036242,942.0
0,944,0.445855566,945.0
0,941,0.4617075078,945.0
0,937,0.4689156516,941.0
0,936,0.4609500842,939.0
0,940,0.4529845168,937.0
0,940,0.4450189494,939.0
0,941,0.437053382,939.0
0,938,0.4761032978,941.0
0,937,0.4920344326,939.0
0,938,0.5079655674,939.0
0,940,0.5238967022,939.0
0,940,0.539827837,941.0
0,941,0.562946618,940.0
0,942,0.586065399,941.0
0,941,0.601682116,942.0
0,939,0.6095684904,941.0
0,938,0.6174548648,940.0
0,933,0.5863705164,940.0
0,925,0.555286168,931.0
0,916,0.5081215992,923.0
0,913,0.468687373,919.0
0,905,0.4292531468,916.0
0,898,0.4056708624,904.0
0,899,0.382088578,901.0
0,912,0.3898189206,901.0
0,933,0.3975492632,916.0
0,956,0.3635026274,931.0
0,989,0.314218124,955.0
0,1027,0.2571605054,986.0
0,1078,0.2098244722,1063.0
0,1131,0.1574074648,1137.0
0,1175,0.1259962434,1165.0
0,1195,0.1098228896,1195.0
0,1200,0.1038242328,1200.0
0,1172,0.080373648,1200.0
0,1110,0.0596024556,1195.0
0,1026,0.0620040374,1163.0
0,958,0.070404276,1078.0
0,920,0.0659559284,956.0
0,904,0.0615075808,919.0
0,908,0.059460815,904.0
0,919,0.073232587,917.0
0,926,0.0810057022,919.0
0,930,0.0992258218,923.0
0,926,0.1133266632,931.0
0,927,0.1361446214,923.0
0,930,0.1638620328,931.0
0,928,0.2208768788,931.0
0,932,0.324828015,931.0
0,932,0.4328984294,931.0
0,929,0.524749663,931.0
0,932,0.5934813238,931.0
0,932,0.63291555,931.0
0,934,0.63291555,931.0
0,934,0.6401236938,935.0
0,932,0.6548339016,935.0
0,930,0.6695441094,931.0
0,930,0.6842543172,931.0
0,933,0.691462461,931.0
0,933,0.6767522532,934.0
0,931,0.6767522532,931.0
0,929,0.6767522532,931.0
0,929,0.6767522532,931.0
0,931,0.6767522532,931.0
0,933,0.691462461,931.0
0,936,0.6767522532,934.0
0,933,0.6695441094,934.0
0,931,0.6623359656,931.0
0,927,0.6476257578,931.0
0,926,0.640417614,931.0
0,930,0.640417614,931.0
0,930,0.63291555,931.0
0,932,0.625413486,931.0
0,930,0.625413486,931.0
0,927,0.6101810794,931.0
0,926,0.6176831434,931.0
0,930,0.6176831434,931.0
0,931,0.6176831434,931.0
0,930,0.6251852074,931.0
0,927,0.63291555,931.0
0,923,0.63291555,931.0
0,927,0.63291555,923.0
0,929,0.63291555,931.0
0,931,0.625413486,931.0
0,930,0.63291555,931.0
0,930,0.63291555,931.0
0,929,0.6476257578,931.0
0,927,0.6623359656,931.0
0,929,0.6770461734,931.0
0,930,0.6842543172,931.0
0,931,0.691462461,931.0
0,927,0.691462461,931.0
0,926,0.691462461,931.0
0,924,0.691462461,931.0
0,927,0.691462461,923.0
0,929,0.6842543172,931.0
0,929,0.6770461734,931.0
0,928,0.6698380296,931.0
0,924,0.6626298858,931.0
0,927,0.647919678,923.0
0,927,0.640417614,931.0
0,929,0.640417614,931.0
0,930,0.640417614,931.0
0,928,0.640417614,931.0
0,922,0.647919678,930.0
0,926,0.655421742,923.0
0,928,0.655421742,923.0
0,929,0.655421742,930.0
0,929,0.655421742,931.0
0,928,0.6626298858,931.0
0,925,0.6698380296,930.0
0,927,0.6770461734,923.0
0,927,0.6842543172,930.0
0,929,0.691462461,931.0
0,926,0.6983193452,931.0
0,924,0.7051762294,923.0
0,921,0.7120331136,923.0
0,919,0.7188899978,919.0
0,921,0.725746882,919.0
0,919,0.725746882,923.0
0,920,0.725746882,919.0
0,918,0.725746882,919.0
0,920,0.725746882,919.0
0,917,0.725746882,919.0
0,920,0.725746882,919.0
0,920,0.725746882,919.0
0,921,0.725746882,919.0
0,920,0.725746882,923.0
0,918,0.725746882,919.0
0,919,0.725746882,919.0
0,918,0.725746882,919.0
0,924,0.725746882,919.0
0,923,0.725746882,923.0
0,925,0.725746882,923.0
0,923,0.725746882,923.0
0,925,0.725746882,923.0
0,929,0.7188899978,923.0
0,932,0.7120331136,931.0
0,934,0.7051762294,930.0
0,932,0.6983193452,935.0
0,932,0.691462461,930.0
0,932,0.691462461,930.0
0,936,0.6690219106,930.0
0,939,0.6465813602,937.0
0,942,0.6241408098,940.0
0,942,0.6017002594,944.0
0,943,0.5869900516,942.0
0,944,0.5947203942,942.0
0,948,0.6024507368,945.0
0,951,0.6101810794,948.0
0,952,0.617911422,952.0
0,950,0.602294705,954.0
0,951,0.602294705,949.0
0,953,0.5707468532,949.0
0,956,0.531312627,952.0
0,959,0.4694378504,955.0
0,959,0.4231797908,960.0
0,959,0.35444813,960.0
0,958,0.317264321,960.0
0,960,0.2754873426,959.0
0,959,0.2561509146,960.0
0,961,0.2428361372,960.0
0,961,0.2428361372,960.0
0,962,0.2644032292,960.0
0,959,0.314066582,963.0
0,958,0.3796610696,959.0
0,962,0.4233027718,959.0
0,962,0.4684521482,963.0
0,961,0.4920344326,963.0
0,959,0.5158519418,960.0
0,957,0.5237383162,959.0
0,959,0.555286168,958.0
0,960,0.5788684524,959.0
0,961,0.5947203942,960.0
0,961,0.5947203942,962.0
0,958,0.5947203942,960.0
0,957,0.609430602,959.0
0,957,0.6241408098,959.0
0,959,0.6465813602,958.0
0,961,0.6618137668,960.0
0,960,0.6770461734,962.0
0,958,0.6623359656,961.0
0,959,0.6476257578,959.0
0,955,0.640417614,960.0
0,959,0.617298833,955.0
0,960,0.594180052,959.0
0,960,0.578563335,960.0
0,958,0.562946618,960.0
0,957,0.539827837,959.0
0,957,0.5477142114,959.0
0,957,0.5556005858,959.0
0,961,0.5476350184,959.0
0,961,0.539669451,960.0
0,957,0.539669451,960.0
0,955,0.5473997936,955.0
0,956,0.5551301362,956.0
0,956,0.5787124206,957.0
0,958,0.602294705,957.0
0,954,0.602294705,959.0
0,953,0.586677988,952.0
0,952,0.571061271,952.0
0,953,0.5633309284,952.0
0,955,0.5477142114,952.0
0,958,0.5317830766,955.0
0,955,0.5158519418,959.0
0,956,0.499920807,956.0
0,953,0.4840688652,958.0
0,954,0.4681377304,952.0
0,956,0.4761032978,956.0
0,959,0.4761032978,955.0
0,959,0.4761032978,960.0
0,958,0.4681377304,960.0
0,955,0.4840688652,959.0
0,955,0.499920807,956.0
0,957,0.5237383162,956.0
0,960,0.539669451,957.0
0,956,0.5556005858,960.0
0,955,0.5634869602,955.0
0,953,0.5634869602,956.0
0,953,0.5712173028,952.0
0,955,0.5791036772,952.0
0,957,0.5869900516,955.0
0,956,0.5869900516,957.0
0,954,0.5869900516,958.0
0,953,0.579259709,956.0
0,954,0.5869900516,954.0
0,955,0.5947203942,956.0
0,959,0.5788684524,955.0
0,957,0.5630165106,960.0
0,954,0.5551301362,959.0
0,954,0.5473997936,953.0
0,953,0.539669451,956.0
0,955,0.539669451,953.0
0,958,0.5317038836,955.0
0,959,0.5078863744,959.0
0,961,0.4761824908,959.0
0,960,0.4444786072,960.0
0,963,0.4208963228,960.0
0,966,0.4052796058,963.0
0,968,0.4052796058,965.0
0,970,0.4052796058,967.0
0,971,0.4052796058,970.0
0,970,0.4288618902,970.0
0,972,0.460409742,970.0
0,975,0.4921136256,971.0
0,976,0.5315478518,976.0
0,977,0.570982078,976.0
0,977,0.6161314544,976.0
0,978,0.6533152634,976.0
0,978,0.682612698,976.0
0,982,0.690114762,976.0
0,985,0.697616826,981.0
0,980,0.683551798,986.0
0,980,0.66948677,981.0
0,979,0.655421742,981.0
0,977,0.655421742,980.0
0,978,0.655421742,976.0
0,982,0.655421742,976.0
0,982,0.655421742,981.0
0,981,0.655421742,981.0
0,978,0.66948677,980.0
0,980,0.683551798,976.0
0,984,0.683551798,981.0
0,991,0.676049734,980.0
0,992,0.66854767,986.0
0,989,0.646980578,986.0
0,978,0.6018312016,986.0
0,972,0.5707468532,976.0
0,972,0.5471645688,971.0
0,972,0.5235822844,971.0
0,969,0.5,972.0
0,966,0.5,967.0
0,962,0.5235822844,965.0
0,960,0.5471645688,962.0
0,958,0.5707468532,960.0
0,958,0.5943291376,959.0
0,957,0.639478514,959.0
0,954,0.6541887218,956.0
0,953,0.6688989296,953.0
0,954,0.6764009936,954.0
0,957,0.6839030576,953.0
0,957,0.6698380296,955.0
0,956,0.6626298858,959.0
0,953,0.655421742,955.0
0,952,0.655421742,954.0
0,951,0.655421742,954.0
0,953,0.6401893354,949.0
0,953,0.6249569288,952.0
0,953,0.6018381478,953.0
0,951,0.5787193668,953.0
0,950,0.5556005858,952.0
0,950,0.5317830766,949.0
0,952,0.4848467864,949.0
0,953,0.4192522988,954.0
0,954,0.3430177822,953.0
0,950,0.2667832656,953.0
0,950,0.2171199128,949.0
0,951,0.1850162862,949.0
0,952,0.1697784186,950.0
0,954,0.151408808,954.0
0,955,0.1330391974,953.0
0,950,0.0995812102,955.0
0,948,0.0761306254,950.0
0,942,0.0623588534,948.0
0,938,0.065148745,942.0
0,933,0.0607003974,940.0
0,927,0.0607003974,931.0
0,924,0.0607003974,930.0
0,915,0.0666990542,923.0
0,911,0.0873597474,919.0
0,915,0.1152586798,919.0
0,936,0.1752612388,919.0
0,962,0.2167504222,934.0
0,991,0.2342023502,960.0
0,1023,0.239761405,986.0
0,1071,0.2646568878,1071.0
0,1130,0.2228744484,1120.0
0,1180,0.1873839218,1175.0
0,1212,0.1594849894,1195.0
0,1223,0.121663936,1212.0
0,1200,0.0621012502,1230.0
0,1137,0.0366075452,1200.0
0,1049,0.0181796858,1185.0
0,974,0.009959988,1112.0
0,928,0.0055066464,976.0
0,913,0.003376294,930.0
0,921,0.0018742144,919.0
0,934,0.0011354974,923.0
0,942,0.0011354974,935.0
0,944,0.0022807456,942.0
0,945,0.0050469656,945.0
0,941,0.0084824222,945.0
0,939,0.0172019942,941.0
0,940,0.0436418116,940.0
0,940,0.1041073864,941.0
0,942,0.2092922642,940.0
0,943,0.2821370956,944.0
0,940,0.3496417186,944.0
0,940,0.4225085064,940.0
0,939,0.4608009986,940.0
0,942,0.4528354312,940.0
0,943,0.4453333672,944.0
0,942,0.4530637098,944.0
0,941,0.437211768,942.0
0,941,0.4213598262,942.0
0,941,0.4055078844,942.0
0,941,0.4524441746,942.0
0,945,0.460330549,941.0
0,942,0.4682169234,945.0
0,939,0.4761032978,942.0
0,939,0.4919552396,940.0
0,937,0.4996855822,940.0
0,937,0.531233434,935.0
0,941,0.5627812858,939.0
0,940,0.5943291376,941.0
0,939,0.617911422,940.0
0,939,0.617911422,940.0
0,939,0.639478514,940.0
0,940,0.661045606,940.0
0,941,0.682612698,939.0
0,940,0.70417979,941.0
0,939,0.725746882,940.0
0,937,0.725746882,940.0
0,938,0.725746882,935.0
0,943,0.70417979,939.0
0,944,0.682612698,942.0
0,942,0.661045606,945.0
0,942,0.639478514,942.0
0,942,0.6101810794,941.0
0,940,0.6024507368,942.0
0,939,0.6024507368,939.0
0,942,0.5947203942,940.0
0,940,0.5869900516,942.0
0,941,0.5869900516,939.0
0,937,0.6022224582,941.0
0,938,0.6097245222,939.0
0,940,0.6174548648,939.0
0,942,0.6251852074,939.0
0,942,0.63291555,942.0
0,942,0.625413486,942.0
0,940,0.617911422,942.0
0,939,0.617911422,939.0
0,942,0.617911422,940.0
0,944,0.5863635702,942.0
0,942,0.5707468532,945.0
0,941,0.5551301362,942.0
0,940,0.5473997936,941.0
0,940,0.539669451,939.0
0,940,0.5634869602,939.0
0,942,0.5713733346,940.0
0,943,0.5475558254,942.0
0,941,0.5158519418,944.0
0,941,0.4920344326,941.0
0,941,0.4997647752,941.0
0,941,0.5074951178,941.0
0,944,0.5233470596,941.0
0,941,0.5391990014,945.0
0,941,0.5471645688,941.0
0,939,0.5235822844,941.0
0,939,0.5,940.0
0,941,0.5235822844,940.0
0,942,0.5471645688,941.0
0,941,0.5707468532,942.0
0,940,0.5943291376,941.0
0,937,0.625413486,940.0
0,939,0.646980578,938.0
0,941,0.66854767,940.0
0,943,0.66854767,941.0
0,944,0.66854767,944.0
0,940,0.661045606,945.0
0,941,0.639478514,940.0
0,940,0.617911422,941.0
0,942,0.617911422,940.0
0,942,0.617911422,942.0
0,939,0.617911422,942.0
0,940,0.617911422,940.0
0,938,0.617911422,940.0
0,940,0.639478514,940.0
0,941,0.661045606,940.0
0,943,0.66854767,941.0
0,943,0.676049734,944.0
0,944,0.683551798,942.0
0,942,0.66948677,945.0
0,943,0.655421742,942.0
0,948,0.655421742,944.0
0,951,0.655421742,948.0
0,952,0.655421742,950.0
0,952,0.632302961,954.0
0,952,0.5853666708,954.0
0,954,0.5159898302,954.0
0,959,0.4466129896,953.0
0,964,0.3523406662,959.0
0,962,0.2811871238,963.0
0,962,0.2338510906,960.0
0,963,0.2089556078,962.0
0,963,0.184060125,962.0
0,964,0.184060125,963.0
0,968,0.2020987236,962.0
0,965,0.2417044142,967.0
0,962,0.320744331,965.0
0,961,0.3997842478,962.0
0,958,0.5081215992,960.0
0,963,0.584355324,960.0
0,964,0.6462301006,963.0
0,963,0.668670651,962.0
0,963,0.6911112014,963.0
0,962,0.6842543172,963.0
0,962,0.691462461,963.0
0,963,0.691462461,962.0
0,964,0.691462461,963.0
0,964,0.691462461,963.0
0,961,0.691462461,963.0
0,960,0.6983193452,960.0
0,959,0.6983193452,958.0
0,962,0.6836091374,958.0
0,964,0.6688989296,962.0
0,966,0.6541887218,963.0
0,963,0.6326216298,965.0
0,962,0.617911422,963.0
0,961,0.617911422,962.0
0,962,0.6101810794,960.0
0,962,0.6024507368,962.0
0,962,0.5947203942,962.0
0,962,0.5947203942,962.0
0,959,0.609430602,962.0
0,956,0.6318711524,959.0
0,958,0.6543117028,955.0
0,961,0.6620420454,960.0
0,959,0.6543117028,962.0
0,959,0.6318711524,959.0
0,955,0.6171609446,959.0
0,956,0.6024507368,956.0
0,956,0.6024507368,955.0
0,957,0.6101810794,958.0
0,957,0.617911422,956.0
0,952,0.617911422,956.0
0,953,0.6101810794,952.0
0,955,0.6024507368,953.0
0,956,0.5947203942,955.0
0,956,0.5947203942,956.0
0,956,0.5869900516,956.0
0,956,0.5869900516,956.0
0,954,0.5869900516,956.0
0,953,0.5869900516,953.0
0,953,0.579259709,954.0
0,956,0.579259709,954.0
0,956,0.5869900516,955.0
0,955,0.609430602,956.0
0,953,0.6318711524,956.0
0,951,0.6543117028,954.0
0,951,0.6767522532,952.0
0,954,0.6983193452,950.0
0,953,0.7051762294,953.0
0,953,0.7120331136,954.0
0,950,0.7120331136,953.0
0,949,0.7120331136,952.0
0,952,0.6979680856,948.0
0,953,0.6764009936,953.0
0,949,0.6312516172,953.0
0,949,0.6009246924,948.0
0,948,0.5705977676,948.0
0,949,0.5474789866,948.0
0,952,0.5318622696,948.0
0,954,0.5238967022,953.0
0,952,0.5159311348,953.0
0,952,0.5079655674,953.0
0,951,0.5,954.0
0,953,0.4920344326,952.0
0,955,0.5079655674,953.0
0,958,0.5079655674,955.0
0,956,0.5079655674,960.0
0,957,0.5079655674,956.0
0,957,0.5079655674,956.0
0,960,0.5,956.0
0,964,0.4689156516,958.0
0,967,0.4378313032,962.0
0,967,0.4142490188,967.0
0,966,0.398397077,967.0
0,967,0.3904315096,965.0
0,968,0.4294814254,967.0
0,969,0.4685313412,967.0
0,972,0.500079193,967.0
0,972,0.5238967022,972.0
0,972,0.5477142114,972.0
0,973,0.5913559136,972.0
0,975,0.6285397226,972.0
0,978,0.6657235316,976.0
0,982,0.7029073406,976.0
0,982,0.7322047752,981.0
0,980,0.725746882,981.0
0,978,0.725746882,980.0
0,976,0.725746882,980.0
0,977,0.725746882,976.0
0,979,0.725746882,976.0
0,982,0.725746882,977.0
0,980,0.725746882,980.0
0,979,0.725746882,980.0
0,979,0.725746882,980.0
0,982,0.725746882,980.0
0,987,0.725746882,980.0
0,983,0.725746882,986.0
0,973,0.7188899978,980.0
0,966,0.7120331136,972.0
0,962,0.7051762294,965.0
0,966,0.6983193452,962.0
0,964,0.691462461,965.0
0,962,0.691462461,962.0
0,956,0.691462461,962.0
0,954,0.6842543172,955.0
0,950,0.6539273924,953.0
0,951,0.6156349002,949.0
0,952,0.577342408,951.0
0,951,0.5310843484,954.0
0,948,0.4841480582,952.0
0,949,0.4526002064,949.0
0,946,0.429017922,948.0
0,948,0.4054356376,945.0
0,949,0.3898189206,949.0
0,950,0.397705295,948.0
0,948,0.4292531468,949.0
0,948,0.4608009986,949.0
0,946,0.5079655674,949.0
0,948,0.5626322002,948.0
0,948,0.6088902598,949.0
0,949,0.6392171846,948.0
0,945,0.6695441094,948.0
0,943,0.6842543172,945.0
0,943,0.691462461,942.0
0,944,0.691462461,942.0
0,947,0.6983193452,945.0
0,945,0.7051762294,948.0
0,943,0.7120331136,945.0
0,943,0.7188899978,944.0
0,943,0.725746882,944.0
0,942,0.725746882,944.0
0,944,0.725746882,942.0
0,939,0.725746882,945.0
0,929,0.6805975056,940.0
0,922,0.6274825618,931.0
0,917,0.574367618,923.0
0,917,0.5212526742,919.0
0,910,0.4681377304,919.0
0,905,0.460172163,919.0
0,910,0.460172163,904.0
0,929,0.4522857886,919.0
0,954,0.397063381,931.0
0,984,0.3211802802,953.0
0,1024,0.2425072878,980.0
0,1076,0.166624187,1071.0
0,1132,0.095837569,1137.0
0,1170,0.0679386366,1180.0
0,1192,0.0575306168,1195.0
0,1189,0.0469498662,1200.0
0,1152,0.031730772,1195.0
0,1075,0.0193015694,1076.0
0,991,0.0131691664,1132.0
0,931,0.010206544,986.0
0,904,0.010206544,931.0
0,905,0.012054996,904.0
0,919,0.0146956426,904.0
0,930,0.0164649794,919.0
0,933,0.0208703536,931.0
0,931,0.0314511042,934.0
0,929,0.0516843486,931.0
0,933,0.0752446766,931.0
0,936,0.102425701,934.0
0,935,0.1641552888,937.0
0,934,0.274376133,934.0
0,933,0.3749444834,935.0
0,934,0.4713935556,931.0
0,935,0.5632447892,935.0
0,936,0.617911422,934.0
0,936,0.6326216298,934.0
0,935,0.6473318376,934.0
0,934,0.6620420454,934.0
0,931,0.6836091374,935.0
0,935,0.6911112014,931.0
0,937,0.6764009936,934.0
0,938,0.6616907858,939.0
0,935,0.646980578,940.0
0,931,0.625413486,934.0
0,931,0.617911422,931.0
0,933,0.617911422,931.0
0,935,0.617911422,934.0
0,934,0.617911422,934.0
0,932,0.617911422,935.0
0,932,0.6326216298,931.0
0,932,0.6541887218,931.0
0,933,0.6757558138,931.0
0,934,0.6973229058,931.0
0,933,0.7188899978,935.0
0,933,0.725746882,931.0
0,931,0.725746882,931.0
0,931,0.725746882,931.0
0,933,0.725746882,931.0
0,934,0.725746882,934.0
0,932,0.725746882,935.0
0,931,0.725746882,932.0
0,931,0.725746882,931.0
0,932,0.7188899978,931.0
0,935,0.6973229058,931.0
0,939,0.6757558138,934.0
0,936,0.6464583792,940.0
0,937,0.6171609446,934.0
0,933,0.5947203942,939.0
0,935,0.5869900516,931.0
0,937,0.579259709,934.0
0,937,0.579259709,939.0
0,935,0.5869900516,939.0
0,933,0.5947203942,934.0
0,932,0.6171609446,931.0
0,933,0.639601495,931.0
0,935,0.6688989296,934.0
0,934,0.6969239148,934.0
0,934,0.7249489,935.0
0,935,0.7382636774,935.0
0,934,0.7515784548,934.0
0,934,0.758036348,935.0
0,935,0.758036348,935.0
0,936,0.758036348,934.0
0,937,0.758036348,934.0
0,936,0.758036348,939.0
0,935,0.758036348,937.0
0,936,0.758036348,934.0
0,936,0.758036348,937.0
0,938,0.758036348,937.0
0,936,0.7447215706,940.0
0,935,0.7314067932,934.0
0,934,0.7180920158,934.0
0,933,0.7047772384,935.0
0,936,0.691462461,931.0
0,938,0.691462461,937.0
0,936,0.6842543172,940.0
0,936,0.6770461734,935.0
0,933,0.6698380296,935.0
0,932,0.6626298858,931.0
0,935,0.647919678,931.0
0,937,0.640417614,934.0
0,935,0.63291555,938.0
0,935,0.625413486,934.0
0,935,0.617911422,934.0
0,931,0.617911422,934.0
0,932,0.625413486,931.0
0,935,0.6176831434,931.0
0,936,0.6099528008,934.0
0,935,0.6022224582,935.0
0,934,0.6097245222,934.0
0,932,0.6097245222,935.0
0,937,0.6018381478,931.0
0,938,0.5939517734,939.0
0,938,0.5780998316,940.0
0,935,0.5470154832,940.0
0,935,0.5159311348,934.0
0,935,0.5238175092,934.0
0,937,0.5317038836,934.0
0,942,0.5475558254,938.0
0,941,0.5634077672,942.0
0,942,0.579259709,941.0
0,943,0.6017002594,941.0
0,943,0.6241408098,944.0
0,948,0.6465813602,942.0
0,951,0.6690219106,949.0
0,952,0.691462461,952.0
0,952,0.6842543172,954.0
0,951,0.6695441094,954.0
0,953,0.6548339016,952.0
0,955,0.6245069768,953.0
0,957,0.594180052,955.0
0,955,0.571061271,956.0
0,957,0.555444554,956.0
0,959,0.5318622696,956.0
0,959,0.5238967022,959.0
0,960,0.5159311348,959.0
0,964,0.484383283,959.0
0,963,0.4605657738,962.0
0,960,0.444713832,962.0
0,958,0.444713832,959.0
0,959,0.444713832,956.0
0,961,0.460330549,959.0
0,962,0.460330549,962.0
0,961,0.4682169234,962.0
0,960,0.460251356,962.0
0,956,0.4522857886,958.0
0,956,0.4838336404,955.0
0,958,0.515537524,956.0
0,961,0.5235030914,959.0
0,959,0.5314686588,962.0
0,958,0.5394342262,959.0
0,956,0.5238175092,959.0
0,956,0.5238175092,956.0
0,958,0.5317830766,956.0
0,958,0.539748644,959.0
0,956,0.5477142114,956.0
0,958,0.5477142114,956.0
0,955,0.5477142114,956.0
0,955,0.5708329924,956.0
0,955,0.5939517734,956.0
0,958,0.6018381478,956.0
0,956,0.6174548648,956.0
0,956,0.6174548648,956.0
0,953,0.6099528008,956.0
0,955,0.5868340198,954.0
0,956,0.5789476454,955.0
0,958,0.5633309284,956.0
0,957,0.5633309284,956.0
0,955,0.5556005858,956.0
0,953,0.5634869602,956.0
0,953,0.5791036772,954.0
0,954,0.6022224582,954.0
0,952,0.5943360838,953.0
0,952,0.5864497094,952.0
0,952,0.5864497094,951.0
0,950,0.5708329924,951.0
0,951,0.539748644,951.0
0,953,0.5317830766,952.0
0,952,0.5238175092,953.0
0,952,0.5079655674,952.0
0,947,0.4920344326,951.0
0,948,0.4840688652,948.0
0,946,0.4920344326,948.0
0,948,0.5,948.0
0,949,0.5235822844,949.0
0,951,0.5626322002,950.0
0,950,0.594180052,952.0
0,949,0.609796769,948.0
0,948,0.6176831434,948.0
0,949,0.6099528008,949.0
0,951,0.5947203942,948.0
0,950,0.5791036772,952.0
0,949,0.5555213928,948.0
0,948,0.5317038836,950.0
0,949,0.5158519418,949.0
0,950,0.4920344326,948.0
0,953,0.4682169234,950.0
0,952,0.444634639,951.0
0,951,0.421515858,952.0
0,949,0.3763664816,952.0
0,950,0.3391826726,950.0
0,952,0.309885238,949.0
0,954,0.288318146,952.0
0,953,0.2811100022,956.0
0,951,0.2811100022,952.0
0,950,0.2686304584,952.0
0,948,0.2455108856,948.0
0,951,0.2330313418,949.0
0,952,0.2136949138,952.0
0,950,0.2072370206,952.0
0,950,0.2197165644,952.0
0,949,0.236378244,948.0
0,947,0.236378244,950.0
0,952,0.236378244,948.0
0,958,0.2109994476,952.0
0,958,0.1832820362,960.0
0,961,0.162022518,960.0
0,958,0.1330128784,960.0
0,961,0.101601657,958.0
0,966,0.0857737868,960.0
0,969,0.063190601,968.0
0,970,0.0418007008,970.0
0,968,0.0356253244,972.0
0,965,0.0318515298,969.0
0,965,0.0292154924,968.0
0,971,0.025907399,964.0
0,974,0.020675113,976.0
0,975,0.0137590288,982.0
0,974,0.007083991,981.0
0,974,0.0034662022,976.0
0,975,0.0038637764,976.0
0,975,0.0054975724,976.0
0,977,0.0068671,976.0
0,975,0.0079955812,978.0
0,971,0.0128066556,975.0
0,970,0.0341810824,972.0
0,971,0.086886884,970.0
0,973,0.1932129442,970.0
0,975,0.2995390044,975.0
0,975,0.4096476342,975.0
0,975,0.502485642,975.0
0,980,0.5556005858,975.0
0,981,0.5634869602,989.0
0,976,0.5634869602,977.0
0,969,0.5634869602,975.0
0,965,0.5476350184,967.0
0,961,0.5160871666,964.0
0,960,0.4766529404,961.0
0,954,0.4235379966,958.0
0,955,0.3394171056,950.0
0,954,0.2624310396,955.0
0,949,0.1949264166,953.0
0,946,0.124252013,951.0
0,945,0.0739514158,945.0
0,944,0.047963677,945.0
0,946,0.0338628356,945.0
0,946,0.0411010748,948.0
0,944,0.0547178598,948.0
0,945,0.0818988842,945.0
0,944,0.1310061958,945.0
0,944,0.1910087548,945.0
0,944,0.2828229904,945.0
0,945,0.4017553856,944.0
0,944,0.5216316044,944.0
0,942,0.6119303572,944.0
0,942,0.688164082,942.0
0,941,0.725347891,942.0
0,943,0.7106376832,941.0
0,946,0.682612698,944.0
0,947,0.661045606,948.0
0,942,0.6317481714,948.0
0,941,0.6024507368,942.0
0,942,0.5947203942,941.0
0,945,0.5711381098,941.0
0,947,0.5475558254,944.0
0,946,0.539669451,948.0
0,944,0.5317830766,948.0
0,942,0.5470154832,944.0
0,939,0.5705977676,942.0
0,939,0.601682116,940.0
0,933,0.5937165486,940.0
0,925,0.5857509812,931.0
0,919,0.538814691,923.0
0,915,0.5152324066,919.0
0,906,0.4841480582,919.0
0,901,0.4841480582,919.0
0,905,0.4841480582,904.0
0,923,0.4920344326,919.0
0,944,0.4344055124,923.0
0,969,0.3505568442,944.0
0,1003,0.2735707782,967.0
0,1054,0.1965847122,940.0
0,1109,0.1362813304,974.0
0,1153,0.1169241846,1163.0
0,1178,0.1079589166,1075.0
0,1180,0.0865844898,1195.0
0,1146,0.0638405354,1195.0
0,1079,0.0321560104,1066.0
0,1001,0.0092094622,1137.0
0,937,0.002216919,940.0
0,907,0.0006239376,938.0
0,903,0.0004004838,919.0
0,912,0.0004213438,904.0
0,924,0.0004913856,919.0
0,931,0.000808891,923.0
0,928,0.0035430548,931.0
0,928,0.0144563874,931.0
0,930,0.0512010266,931.0
0,931,0.1199792506,931.0
0,932,0.2115026572,931.0
0,934,0.3470144598,931.0
0,932,0.4743470936,935.0
0,931,0.5758275608,931.0
0,929,0.6379962576,931.0
0,928,0.6911112014,931.0
0,930,0.6979680856,931.0
0,932,0.7048249698,932.0
0,932,0.711681854,931.0
0,933,0.725746882,931.0
0,931,0.7188899978,934.0
0,931,0.7120331136,931.0
0,931,0.7051762294,932.0
0,933,0.6983193452,932.0
0,933,0.6983193452,934.0
0,933,0.7051762294,934.0
0,930,0.7120331136,931.0
0,930,0.7188899978,931.0
0,932,0.725746882,932.0
0,934,0.725746882,931.0
0,935,0.7322047752,935.0
0,933,0.7386626684,934.0
0,930,0.7451205616,931.0
0,928,0.7515784548,931.0
0,929,0.758036348,931.0
0,933,0.758036348,931.0
0,932,0.7515784548,934.0
0,930,0.7451205616,931.0
0,929,0.7386626684,931.0
0,926,0.7322047752,931.0
0,928,0.7188899978,923.0
0,929,0.7120331136,931.0
0,929,0.7051762294,931.0
0,928,0.6983193452,931.0
0,927,0.691462461,931.0
0,927,0.691462461,932.0
0,929,0.691462461,932.0
0,931,0.6983193452,931.0
0,930,0.7051762294,932.0
0,928,0.6979680856,932.0
0,928,0.6907599418,931.0
0,927,0.683551798,931.0
0,927,0.66948677,929.0
0,931,0.655421742,929.0
0,932,0.655421742,931.0
0,929,0.647919678,931.0
0,926,0.640417614,931.0
0,928,0.63291555,923.0
0,932,0.625413486,931.0
0,933,0.6326216298,931.0
0,935,0.6473318376,934.0
0,932,0.6620420454,934.0
0,930,0.6695441094,931.0
0,929,0.6770461734,931.0
0,932,0.6698380296,931.0
0,933,0.6698380296,931.0
0,932,0.6698380296,935.0
0,932,0.6839030576,933.0
0,930,0.6979680856,933.0
0,930,0.7120331136,931.0
0,933,0.7188899978,932.0
0,935,0.725746882,934.0
0,933,0.725746882,934.0
0,932,0.725746882,931.0
0,929,0.725746882,933.0
0,928,0.725746882,931.0
0,931,0.725746882,931.0
0,931,0.725746882,932.0
0,930,0.725746882,932.0
0,928,0.7188899978,931.0
0,927,0.7120331136,931.0
0,926,0.7051762294,929.0
0,929,0.6983193452,923.0
0,932,0.691462461,931.0
0,931,0.6983193452,933.0
0,930,0.7051762294,931.0
0,928,0.7051762294,931.0
0,930,0.7051762294,931.0
0,930,0.7051762294,932.0
0,932,0.7051762294,931.0
0,931,0.7051762294,931.0
0,931,0.7120331136,931.0
0,928,0.7120331136,932.0
0,927,0.7120331136,931.0
0,929,0.7051762294,930.0
0,933,0.6983193452,931.0
0,934,0.6983193452,935.0
0,934,0.7051762294,935.0
0,934,0.7120331136,935.0
0,934,0.7188899978,935.0
0,938,0.725746882,935.0
0,939,0.725746882,940.0
0,941,0.7322047752,940.0
0,942,0.7322047752,941.0
0,940,0.7322047752,941.0
0,941,0.7322047752,941.0
0,947,0.6950209662,941.0
0,950,0.651379264,948.0
0,951,0.614195455,949.0
0,952,0.5690460786,951.0
0,952,0.5080447604,954.0
0,954,0.4842272512,954.0
0,956,0.460409742,953.0
0,956,0.4365922328,955.0
0,955,0.4130099484,956.0
0,954,0.4052796058,956.0
0,950,0.429097115,953.0
0,951,0.4529146242,952.0
0,954,0.4767321334,952.0
0,955,0.5161663596,953.0
0,953,0.5477142114,955.0
0,954,0.539748644,952.0
0,955,0.539748644,953.0
0,952,0.5082007922,955.0
0,954,0.4540563582,952.0
0,954,0.4077982986,955.0
0,955,0.3767139502,953.0
0,952,0.3111194626,955.0
0,952,0.2770728268,952.0
0,952,0.252177344,954.0
0,954,0.2388625666,954.0
0,954,0.2247975386,955.0
0,951,0.2247975386,955.0
0,951,0.2441339666,952.0
0,947,0.2762375932,952.0
0,950,0.3042625784,948.0
0,954,0.3111194626,952.0
0,954,0.3607828154,955.0
0,954,0.3911097402,954.0
0,954,0.4063421468,954.0
0,951,0.4140724894,954.0
0,951,0.4365130398,952.0
0,949,0.4444786072,952.0
0,953,0.4444786072,950.0
0,950,0.4523649816,952.0
0,948,0.4523649816,952.0
0,947,0.4682169234,949.0
0,946,0.4682169234,948.0
0,949,0.4761824908,948.0
0,953,0.4841480582,950.0
0,952,0.5,952.0
0,951,0.5,952.0
0,950,0.4920344326,952.0
0,947,0.4840688652,951.0
0,947,0.4840688652,948.0
0,948,0.4920344326,948.0
0,947,0.5,946.0
0,946,0.5159311348,948.0
0,945,0.5318622696,948.0
0,941,0.555444554,944.0
0,945,0.5395134192,941.0
0,947,0.5315478518,944.0
0,946,0.5315478518,948.0
0,945,0.5394342262,946.0
0,946,0.5394342262,944.0
0,943,0.570982078,946.0
0,944,0.5945643624,944.0
0,947,0.6101810794,944.0
0,949,0.617911422,948.0
0,948,0.6101810794,950.0
0,946,0.6317481714,948.0
0,945,0.6533152634,946.0
0,946,0.6748823554,944.0
0,946,0.6964494474,946.0
0,946,0.725746882,946.0
0,944,0.7188899978,946.0
0,942,0.7120331136,945.0
0,942,0.7051762294,942.0
0,942,0.6911112014,942.0
0,945,0.6842543172,942.0
0,943,0.6842543172,944.0
0,940,0.6842543172,944.0
0,941,0.6842543172,941.0
0,943,0.6767522532,942.0
0,944,0.6620420454,944.0
0,948,0.6548339016,944.0
0,949,0.6476257578,946.0
0,949,0.640417614,948.0
0,947,0.647919678,948.0
0,945,0.655421742,946.0
0,948,0.655421742,944.0
0,948,0.655421742,949.0
0,952,0.647919678,946.0
0,949,0.640417614,952.0
0,947,0.6251852074,948.0
0,945,0.6099528008,946.0
0,949,0.5947203942,944.0
0,952,0.5869900516,948.0
0,956,0.5554421998,952.0
0,953,0.5085059096,955.0
0,953,0.4615696194,952.0
0,958,0.394110408,952.0
0,962,0.3150704912,958.0
0,963,0.271428789,962.0
0,963,0.2509058678,962.0
0,961,0.2303829466,963.0
0,961,0.2303829466,960.0
0,964,0.241963652,962.0
0,968,0.2699886372,963.0
0,972,0.3136303394,967.0
0,973,0.3572720416,972.0
0,972,0.424731253,975.0
0,973,0.5146310148,972.0
0,971,0.5765057914,975.0
0,975,0.6296207352,972.0
0,976,0.682735679,975.0
0,971,0.7120331136,975.0
0,967,0.7188899978,972.0
0,971,0.725746882,967.0
0,972,0.725746882,972.0
0,973,0.725746882,972.0
0,975,0.725746882,975.0
0,975,0.725746882,975.0
0,978,0.725746882,975.0
0,973,0.725746882,976.0
0,965,0.711681854,975.0
0,963,0.697616826,965.0
0,960,0.683551798,963.0
0,959,0.66948677,961.0
0,954,0.632302961,961.0
0,952,0.60918418,954.0
0,949,0.5701342642,952.0
0,950,0.523197974,948.0
0,950,0.4762616838,952.0
0,950,0.4524441746,951.0
0,949,0.4365130398,951.0
0,944,0.406186115,950.0
0,944,0.3837455646,944.0
0,946,0.368513158,944.0
0,947,0.368513158,946.0
0,951,0.3606267836,946.0
0,948,0.3909537084,952.0
0,946,0.4212806332,948.0
0,944,0.4443994142,946.0
0,945,0.460251356,944.0
0,944,0.4761032978,944.0
0,947,0.5223613574,944.0
0,945,0.568619417,946.0
0,944,0.6148774766,944.0
0,941,0.645961825,944.0
0,946,0.645961825,941.0
0,944,0.6156349002,946.0
0,945,0.5853079754,944.0
0,944,0.5549810506,944.0
0,941,0.5318622696,944.0
0,941,0.539827837,941.0
0,942,0.539827837,941.0
0,946,0.5082799852,942.0
0,945,0.4767321334,946.0
0,938,0.4451842816,944.0
0,932,0.4213667724,940.0
0,923,0.3617939354,931.0
0,920,0.3337689502,923.0
0,915,0.2997223144,919.0
0,907,0.2656756786,919.0
0,902,0.2238987002,903.0
0,910,0.2178770496,903.0
0,934,0.2243349428,919.0
0,964,0.2090970752,934.0
0,1002,0.1776858538,963.0
0,1045,0.154674871,940.0
0,1104,0.144034842,1082.0
0,1156,0.1121981524,1002.0
0,1195,0.1080788742,1178.0
0,1207,0.110480456,1200.0
0,1176,0.0983064228,1174.0
0,1097,0.0737614358,1195.0
0,1006,0.0617073602,1011.0
0,938,0.0617073602,1054.0
0,908,0.067706017,939.0
0,906,0.0876531654,919.0
0,917,0.1172791266,903.0
0,926,0.148690348,919.0
0,931,0.1740691444,923.0
0,928,0.223624699,931.0
0,930,0.280639545,931.0
0,930,0.3358619526,932.0
0,934,0.3699085884,932.0
0,933,0.4056639162,935.0
0,932,0.4750407568,934.0
0,932,0.5291851908,931.0
0,932,0.5754432504,931.0
0,933,0.637318027,931.0
0,936,0.691462461,934.0
0,935,0.691462461,935.0
0,934,0.691462461,934.0
0,933,0.691462461,935.0
0,930,0.6983193452,934.0
0,931,0.7051762294,931.0
0,936,0.6979680856,932.0
0,933,0.6979680856,935.0
0,932,0.6979680856,934.0
0,930,0.6911112014,932.0
0,930,0.6842543172,931.0
0,932,0.691462461,931.0
0,931,0.691462461,933.0
0,933,0.6842543172,931.0
0,933,0.6770461734,932.0
0,929,0.6623359656,933.0
0,930,0.6623359656,931.0
0,930,0.6623359656,932.0
0,934,0.6548339016,932.0
0,935,0.6473318376,935.0
0,935,0.6473318376,934.0
0,935,0.6326216298,934.0
0,933,0.617911422,934.0
0,935,0.6101810794,933.0
0,936,0.6024507368,935.0
0,933,0.6024507368,935.0
0,932,0.6099528008,933.0
0,930,0.6174548648,931.0
0,931,0.6398954152,931.0
0,933,0.6551278218,931.0
0,935,0.6551278218,933.0
0,931,0.6476257578,935.0
0,931,0.6323933512,931.0
0,930,0.6251852074,931.0
0,931,0.6176831434,931.0
0,932,0.6176831434,931.0
0,933,0.6176831434,933.0
0,932,0.625413486,933.0
0,933,0.617911422,931.0
0,932,0.6326216298,932.0
0,934,0.6473318376,931.0
0,934,0.6620420454,935.0
0,936,0.6767522532,935.0
0,936,0.6983193452,935.0
0,935,0.7051762294,935.0
0,934,0.7120331136,934.0
0,933,0.7188899978,935.0
0,933,0.725746882,932.0
0,934,0.725746882,932.0
0,935,0.725746882,935.0
0,932,0.7322047752,934.0
0,931,0.7386626684,933.0
0,929,0.7451205616,931.0
0,935,0.7235534696,931.0
0,936,0.7019863776,934.0
0,931,0.6739613924,935.0
0,934,0.6459364072,931.0
0,932,0.617911422,935.0
0,931,0.617911422,931.0
0,932,0.617911422,931.0
0,932,0.617911422,933.0
0,932,0.617911422,933.0
0,928,0.6101810794,933.0
0,928,0.6248912872,931.0
0,926,0.639601495,931.0
0,929,0.647103559,932.0
0,928,0.654605623,931.0
0,928,0.6698380296,931.0
0,927,0.6626298858,931.0
0,926,0.655421742,931.0
0,923,0.655421742,931.0
0,926,0.655421742,920.0
0,929,0.6626298858,923.0
0,926,0.6698380296,931.0
0,927,0.6839030576,923.0
0,926,0.6979680856,931.0
0,924,0.7120331136,923.0
0,928,0.7188899978,926.0
0,931,0.725746882,931.0
0,930,0.725746882,932.0
0,932,0.725746882,932.0
0,933,0.725746882,933.0
0,937,0.711681854,934.0
0,942,0.697616826,938.0
0,947,0.676049734,942.0
0,947,0.654482642,946.0
0,948,0.640417614,946.0
0,950,0.640417614,948.0
0,952,0.640417614,949.0
0,956,0.624800897,954.0
0,958,0.6012186126,955.0
0,959,0.5621686968,961.0
0,959,0.5310843484,961.0
0,960,0.4920344326,959.0
0,960,0.4840688652,959.0
0,964,0.445776373,959.0
0,968,0.4154494482,963.0
0,967,0.377156956,967.0
0,966,0.354038175,967.0
0,965,0.3460726076,968.0
0,965,0.3843650998,963.0
0,967,0.422657592,963.0
0,969,0.4689156516,967.0
0,969,0.5158519418,967.0
0,968,0.539669451,967.0
0,965,0.5848188274,967.0
0,965,0.6299682038,965.0
0,967,0.6671520128,965.0
0,968,0.7029073406,965.0
0,966,0.7386626684,967.0
0,966,0.7451205616,965.0
0,964,0.7515784548,965.0
0,964,0.7515784548,963.0
0,966,0.7382636774,963.0
0,968,0.7249489,965.0
0,966,0.7116341226,967.0
0,965,0.6983193452,965.0
0,963,0.691462461,965.0
0,963,0.691462461,963.0
0,963,0.691462461,963.0
0,966,0.6842543172,963.0
0,966,0.6770461734,965.0
0,965,0.6839030576,965.0
0,965,0.6907599418,965.0
0,964,0.697616826,965.0
0,965,0.7048249698,963.0
0,969,0.6973229058,965.0
0,966,0.6757558138,968.0
0,964,0.6541887218,965.0
0,965,0.6326216298,963.0
0,963,0.617911422,965.0
0,966,0.617911422,963.0
0,966,0.617911422,965.0
0,964,0.617911422,965.0
0,963,0.6101810794,963.0
0,961,0.6024507368,963.0
0,959,0.6024507368,961.0
0,963,0.5788684524,959.0
0,965,0.5473206006,963.0
0,963,0.5235030914,965.0
0,959,0.4840688652,963.0
0,958,0.4369042964,959.0
0,958,0.413322012,959.0
0,959,0.390203231,959.0
0,961,0.353019422,959.0
0,960,0.3383092142,961.0
0,960,0.3235990064,959.0
0,959,0.331329349,959.0
0,958,0.35444813,959.0
0,960,0.391631939,959.0
0,963,0.4140724894,959.0
0,963,0.4365130398,963.0
0,963,0.4365130398,963.0
0,961,0.4286266654,963.0
0,962,0.4365922328,960.0
0,961,0.4524441746,962.0
0,965,0.4682961164,962.0
0,964,0.4921136256,963.0
0,963,0.5159311348,963.0
0,960,0.5159311348,963.0
0,960,0.5395134192,960.0
0,961,0.5474789866,960.0
0,962,0.5474789866,962.0
0,962,0.555365361,962.0
0,960,0.5712173028,962.0
0,958,0.5556005858,960.0
0,960,0.5556005858,958.0
0,960,0.5476350184,960.0
0,963,0.4934905844,960.0
0,962,0.4540563582,963.0
0,961,0.4225085064,962.0
0,961,0.414542939,962.0
0,959,0.414542939,962.0
0,961,0.4292531468,960.0
0,963,0.4292531468,961.0
0,963,0.4369834894,963.0
0,964,0.4211315476,963.0
0,963,0.4211315476,963.0
0,964,0.4682961164,963.0
0,970,0.4998439682,963.0
0,972,0.5236614774,972.0
0,975,0.5474789866,972.0
0,975,0.555444554,975.0
0,975,0.555444554,975.0
0,975,0.571061271,975.0
0,978,0.586677988,975.0
0,982,0.602294705,976.0
0,980,0.617911422,980.0
0,982,0.617911422,981.0
0,983,0.639478514,980.0
0,984,0.661045606,980.0
0,987,0.682612698,980.0
0,989,0.70417979,986.0
0,990,0.725746882,986.0
0,989,0.725746882,986.0
0,987,0.725746882,986.0
0,986,0.725746882,986.0
0,985,0.7322047752,980.0
0,986,0.7386626684,980.0
0,988,0.7451205616,986.0
0,989,0.7515784548,986.0
0,988,0.758036348,986.0
0,986,0.758036348,986.0
0,992,0.758036348,986.0
0,996,0.7515784548,989.0
0,999,0.7451205616,989.0
0,994,0.7318057842,940.0
0,987,0.7184910068,989.0
0,979,0.7051762294,986.0
0,976,0.6983193452,982.0
0,977,0.691462461,975.0
0,973,0.691462461,975.0
0,972,0.691462461,975.0
0,966,0.6842543172,975.0
0,962,0.6770461734,965.0
0,962,0.6698380296,961.0
0,964,0.6698380296,962.0
0,959,0.6395111048,963.0
0,961,0.6084267564,960.0
0,959,0.577342408,962.0
0,958,0.5382924922,961.0
0,959,0.4920344326,958.0
0,960,0.4682169234,961.0
0,958,0.4523649816,960.0
0,957,0.4365130398,959.0
0,954,0.4208963228,959.0
0,951,0.3977775418,954.0
0,957,0.3753369914,952.0
0,959,0.3676066488,955.0
0,961,0.3383092142,960.0
0,959,0.3235990064,962.0
0,958,0.3163908626,960.0
0,956,0.3235990064,959.0
0,958,0.3160969424,956.0
0,960,0.3229538266,959.0
0,959,0.3160969424,960.0
0,956,0.3160969424,958.0
0,954,0.331329349,955.0
0,948,0.3241212052,954.0
0,944,0.3465617556,948.0
0,938,0.3758591902,944.0
0,935,0.3982997406,939.0
0,928,0.3982997406,934.0
0,919,0.4055078844,931.0
0,914,0.3977775418,919.0
0,925,0.3977775418,919.0
0,945,0.3504415086,923.0
0,970,0.2980245012,944.0
0,994,0.2521227836,972.0
0,1021,0.198719002,987.0
0,1058,0.127932384,1071.0
0,1109,0.1020802174,1113.0
0,1160,0.081309025,1163.0
0,1194,0.077655188,1195.0
0,1213,0.0707925858,1200.0
0,1227,0.0707925858,1212.0
0,1238,0.0869659396,1225.0
0,1237,0.0869659396,1252.0
0,1200,0.0765189352,1252.0
0,1124,0.0625124254,1200.0
0,1036,0.04984438,1170.0
0,965,0.0228485954,1080.0
0,928,0.0118983562,963.0
0,923,0.0029948828,931.0
0,935,0.000850771188492,926.0
0,946,0.000357376388492,934.0
0,948,0.000419948788492,946.0
0,947,0.000442151388492,948.0
0,944,0.000805694788492,948.0
0,947,0.003585674,944.0
0,949,0.0143455324,948.0
0,948,0.0509575574,950.0
0,949,0.1350737938,946.0
0,949,0.2188486894,948.0
0,947,0.3471523482,948.0
0,946,0.4813418662,948.0
0,949,0.5896792176,946.0
0,949,0.6506805358,949.0
0,946,0.7048249698,949.0
0,945,0.7120331136,945.0
0,944,0.7051762294,944.0
0,946,0.6983193452,944.0
0,948,0.691462461,945.0
0,946,0.6842543172,949.0
0,944,0.6842543172,945.0
0,945,0.6842543172,944.0
0,944,0.6842543172,944.0
0,947,0.6842543172,944.0
0,948,0.6983193452,948.0
0,947,0.7051762294,949.0
0,946,0.7120331136,948.0
0,946,0.7188899978,948.0
0,946,0.725746882,945.0
0,948,0.7322047752,946.0
0,950,0.7322047752,949.0
0,948,0.7322047752,949.0
0,945,0.7106376832,949.0
0,942,0.6890705912,944.0
0,944,0.661045606,942.0
0,946,0.639478514,944.0
0,948,0.617911422,946.0
0,947,0.617911422,949.0
0,948,0.6101810794,946.0
0,947,0.6024507368,949.0
0,945,0.6024507368,948.0
0,945,0.6024507368,944.0
0,947,0.630475722,944.0
0,947,0.6662310498,948.0
0,947,0.7019863776,948.0
0,945,0.7019863776,948.0
0,946,0.7019863776,944.0
0,949,0.6739613924,946.0
0,950,0.6459364072,949.0
0,948,0.6101810794,952.0
0,948,0.6024507368,949.0
0,947,0.5947203942,949.0
0,949,0.5869900516,948.0
0,949,0.579259709,948.0
0,954,0.5475558254,949.0
0,954,0.539669451,954.0
0,952,0.5317830766,954.0
0,952,0.5238967022,952.0
0,949,0.5238967022,954.0
0,953,0.5477142114,949.0
0,954,0.5477142114,952.0
0,952,0.539748644,954.0
0,950,0.5317830766,952.0
0,949,0.5159311348,951.0
0,949,0.5390499158,949.0
0,949,0.5621686968,949.0
0,951,0.5857509812,949.0
0,951,0.6093332656,952.0
0,951,0.617298833,952.0
0,946,0.5626322002,950.0
0,948,0.51569591,946.0
0,949,0.4762616838,949.0
0,952,0.429097115,949.0
0,952,0.3975492632,952.0
0,950,0.3975492632,954.0
0,947,0.3823168566,949.0
0,950,0.36708445,948.0
0,952,0.3523742422,949.0
0,954,0.3523742422,954.0
0,953,0.399538811,954.0
0,950,0.4464751012,952.0
0,953,0.4775594496,949.0
0,952,0.5238175092,952.0
0,953,0.5473997936,954.0
0,955,0.5238175092,952.0
0,955,0.5159311348,955.0
0,958,0.5159311348,954.0
0,956,0.5159311348,959.0
0,956,0.5317830766,956.0
0,959,0.5238175092,956.0
0,961,0.5,958.0
0,963,0.4920344326,962.0
0,964,0.4761032978,963.0
0,965,0.4522857886,963.0
0,961,0.4443994142,963.0
0,968,0.4219588638,961.0
0,971,0.3988400828,966.0
0,972,0.3757213018,972.0
0,973,0.3601045848,972.0
0,971,0.3679909592,975.0
0,971,0.4142490188,972.0
0,976,0.4453333672,972.0
0,979,0.4764177156,975.0
0,977,0.5079655674,976.0
0,976,0.5317830766,975.0
0,974,0.5621100014,975.0
0,976,0.6004024936,975.0
0,975,0.6386949858,975.0
0,978,0.6690219106,975.0
0,976,0.691462461,976.0
0,975,0.691462461,975.0
0,973,0.6983193452,975.0
0,972,0.7116341226,975.0
0,975,0.7249489,972.0
0,976,0.7382636774,975.0
0,976,0.7515784548,975.0
0,973,0.758036348,975.0
0,974,0.758036348,975.0
0,972,0.758036348,975.0
0,976,0.758036348,972.0
0,976,0.758036348,975.0
0,978,0.758036348,975.0
0,976,0.758036348,976.0
0,973,0.758036348,975.0
0,973,0.758036348,975.0
0,975,0.758036348,975.0
0,975,0.758036348,975.0
0,976,0.758036348,975.0
0,975,0.758036348,975.0
0,973,0.758036348,975.0
0,972,0.758036348,975.0
0,972,0.758036348,975.0
0,976,0.758036348,975.0
0,976,0.758036348,975.0
0,978,0.758036348,975.0
0,975,0.758036348,976.0
0,972,0.758036348,975.0
0,973,0.758036348,972.0
0,974,0.758036348,975.0
0,973,0.758036348,975.0
0,974,0.758036348,975.0
0,971,0.758036348,975.0
0,968,0.758036348,972.0
0,971,0.758036348,966.0
0,973,0.758036348,972.0
0,970,0.7515784548,975.0
0,970,0.7451205616,972.0
0,967,0.7386626684,972.0
0,966,0.7322047752,965.0
0,968,0.711681854,965.0
0,972,0.697616826,966.0
0,968,0.683551798,972.0
0,967,0.66948677,966.0
0,964,0.655421742,965.0
0,962,0.655421742,963.0
0,962,0.6626298858,962.0
0,967,0.6698380296,962.0
0,968,0.6770461734,966.0
0,966,0.6842543172,966.0
0,963,0.6983193452,965.0
0,965,0.7051762294,963.0
0,966,0.7120331136,963.0
0,969,0.7048249698,965.0
0,968,0.697616826,972.0
0,967,0.683551798,966.0
0,964,0.66948677,966.0
0,964,0.655421742,963.0
0,965,0.647919678,963.0
0,968,0.640417614,963.0
0,965,0.63291555,967.0
0,964,0.63291555,963.0
0,962,0.63291555,963.0
0,961,0.654482642,962.0
0,963,0.676049734,962.0
0,964,0.697616826,963.0
0,966,0.711681854,963.0
0,963,0.725746882,965.0
0,963,0.725746882,963.0
0,965,0.7188899978,963.0
0,966,0.7120331136,963.0
0,966,0.7051762294,965.0
0,965,0.6983193452,965.0
0,966,0.691462461,963.0
0,962,0.6842543172,965.0
0,965,0.6770461734,961.0
0,966,0.6698380296,963.0
0,970,0.6395111048,965.0
0,970,0.60918418,972.0
0,970,0.5939517734,972.0
0,969,0.5787193668,972.0
0,971,0.5712173028,968.0
0,975,0.5868340198,972.0
0,978,0.6024507368,975.0
0,979,0.6101810794,976.0
0,979,0.625413486,976.0
0,981,0.63291555,976.0
0,979,0.6609405352,976.0
0,984,0.6889655204,976.0
0,984,0.7169905056,980.0
0,986,0.7375134268,980.0
0,985,0.758036348,986.0
0,984,0.758036348,986.0
0,984,0.758036348,986.0
0,989,0.758036348,986.0
0,994,0.758036348,986.0
0,994,0.758036348,989.0
0,990,0.758036348,989.0
0,990,0.758036348,986.0
0,987,0.758036348,986.0
0,990,0.758036348,986.0
0,990,0.758036348,986.0
0,989,0.758036348,990.0
0,990,0.758036348,990.0
0,991,0.758036348,990.0
0,990,0.758036348,990.0
0,992,0.758036348,990.0
0,999,0.758036348,990.0
0,998,0.7515784548,940.0
0,998,0.7451205616,994.0
0,987,0.7170955764,998.0
0,981,0.6890705912,986.0
0,978,0.661045606,976.0
0,979,0.639478514,976.0
0,976,0.617911422,976.0
0,970,0.617911422,975.0
0,968,0.602294705,970.0
0,965,0.586677988,966.0
0,965,0.5789476454,963.0
0,963,0.5712173028,963.0
0,963,0.5787193668,963.0
0,962,0.6018381478,963.0
0,961,0.6249569288,961.0
0,960,0.6401893354,962.0
0,960,0.647919678,960.0
0,962,0.6168353296,960.0
0,962,0.5937165486,962.0
0,958,0.5705977676,962.0
0,957,0.555365361,959.0
0,956,0.539748644,959.0
0,961,0.5238967022,956.0
0,964,0.5079655674,962.0
0,962,0.4841480582,963.0
0,961,0.4524441746,962.0
0,960,0.4444786072,962.0
0,959,0.4761824908,960.0
0,961,0.4761824908,960.0
0,963,0.4840688652,962.0
0,963,0.4919552396,963.0
0,962,0.4839896722,963.0
0,959,0.4839896722,961.0
0,959,0.4919552396,961.0
0,958,0.499920807,961.0
0,960,0.5078863744,959.0
0,958,0.5078863744,960.0
0,957,0.4920344326,959.0
0,953,0.515616717,959.0
0,948,0.515616717,952.0
0,944,0.4773242248,949.0
0,939,0.4542054438,944.0
0,935,0.4231210954,940.0
0,930,0.3759565266,934.0
0,917,0.3308071502,931.0
0,912,0.3308071502,919.0
0,924,0.3235990064,919.0
0,944,0.2776972888,923.0
0,971,0.2206396702,944.0
0,996,0.1729751104,972.0
0,1029,0.1306276996,998.0
0,1080,0.0882802888,1071.0
0,1137,0.0846264518,1137.0
0,1180,0.0846264518,1049.0
0,1202,0.1091714388,1195.0
0,1203,0.1215423926,1200.0
0,1171,0.1339133464,1200.0
0,1099,0.190970965,1195.0
0,1022,0.2480285836,1006.0
0,961,0.3162975328,1071.0
0,930,0.3329592124,962.0
0,924,0.349620892,931.0
0,929,0.3049342272,923.0
0,939,0.23947637,931.0
0,950,0.141621192,940.0
0,952,0.0953732836,952.0
0,951,0.0491253752,954.0
0,950,0.0190338316,951.0
0,949,0.0116468574,951.0
0,948,0.0166880992,949.0
0,951,0.0416764894,949.0
0,952,0.0666648796,952.0
0,952,0.0967564232,954.0
0,950,0.1696012546,954.0
0,948,0.2859974752,949.0
0,947,0.3824465474,949.0
0,951,0.471165277,948.0
0,952,0.5630165106,952.0
0,951,0.6101810794,954.0
0,950,0.6101810794,951.0
0,950,0.6024507368,949.0
0,948,0.5945643624,949.0
0,952,0.5789476454,949.0
0,954,0.555365361,952.0
0,952,0.539748644,954.0
0,953,0.5238967022,952.0
0,951,0.5159311348,954.0
0,951,0.5079655674,950.0
0,953,0.5,950.0
0,953,0.4840688652,954.0
0,954,0.4761032978,954.0
0,952,0.4761032978,954.0
0,950,0.4840688652,952.0
0,952,0.5078863744,948.0
0,952,0.5158519418,954.0
0,955,0.5158519418,954.0
0,955,0.5078863744,955.0
0,952,0.4840688652,954.0
0,952,0.460251356,952.0
0,948,0.4522857886,952.0
0,950,0.4522857886,949.0
0,954,0.4291670076,952.0
0,952,0.413934601,952.0
0,951,0.398317884,952.0
0,949,0.3904315096,951.0
0,949,0.398397077,949.0
0,953,0.421515858,949.0
0,952,0.4526002064,952.0
0,953,0.4682169234,952.0
0,952,0.4761032978,954.0
0,951,0.4761032978,952.0
0,951,0.499920807,951.0
0,953,0.5157727488,951.0
0,955,0.5237383162,954.0
0,954,0.5158519418,955.0
0,953,0.4922696574,952.0
0,949,0.4453333672,952.0
0,950,0.398397077,949.0
0,951,0.3748147926,952.0
0,952,0.36708445,951.0
0,952,0.359582386,952.0
0,951,0.359582386,952.0
0,948,0.359582386,951.0
0,950,0.3673127286,949.0
0,951,0.390895013,952.0
0,953,0.4219793614,951.0
0,953,0.4610292772,954.0
0,953,0.4921136256,954.0
0,952,0.5079655674,954.0
0,950,0.5079655674,952.0
0,952,0.5079655674,948.0
0,953,0.5,952.0
0,955,0.4920344326,952.0
0,953,0.4684521482,955.0
0,951,0.4448698638,952.0
0,948,0.4212875794,951.0
0,953,0.390203231,949.0
0,954,0.36708445,952.0
0,954,0.359582386,952.0
0,952,0.352080322,952.0
0,952,0.352080322,952.0
0,949,0.359582386,952.0
0,951,0.382701167,949.0
0,951,0.4217510828,952.0
0,952,0.4608009986,951.0
0,953,0.4923488504,952.0
0,950,0.5395134192,952.0
0,948,0.571061271,948.0
0,951,0.594180052,949.0
0,952,0.617298833,952.0
0,954,0.640417614,952.0
0,952,0.647919678,952.0
0,952,0.655421742,952.0
0,951,0.655421742,952.0
0,954,0.655421742,948.0
0,958,0.647919678,954.0
0,956,0.647919678,958.0
0,956,0.647919678,956.0
0,955,0.640417614,956.0
0,955,0.6251852074,954.0
0,957,0.6174548648,954.0
0,960,0.5943360838,956.0
0,960,0.5632517354,960.0
0,961,0.5238175092,960.0
0,960,0.5,962.0
0,961,0.4682961164,960.0
0,961,0.4444786072,962.0
0,965,0.4365130398,962.0
0,967,0.4443994142,963.0
0,967,0.4443994142,966.0
0,967,0.4522857886,966.0
0,969,0.460172163,966.0
0,971,0.4681377304,968.0
0,972,0.4840688652,972.0
0,973,0.5,972.0
0,973,0.5315478518,975.0
0,971,0.5630957036,975.0
0,972,0.586677988,972.0
0,973,0.602294705,972.0
0,976,0.617911422,975.0
0,976,0.625413486,975.0
0,977,0.646980578,975.0
0,976,0.66854767,976.0
0,974,0.690114762,976.0
0,975,0.711681854,975.0
0,975,0.725746882,975.0
0,977,0.725746882,975.0
0,974,0.7322047752,976.0
0,974,0.7386626684,975.0
0,971,0.7451205616,975.0
0,975,0.7382636774,972.0
0,977,0.7314067932,975.0
0,975,0.7180920158,976.0
0,975,0.7047772384,975.0
0,972,0.691462461,975.0
0,972,0.6842543172,973.0
0,974,0.6618137668,972.0
0,975,0.6393732164,975.0
0,975,0.616932666,975.0
0,973,0.5944921156,975.0
0,974,0.5944921156,975.0
0,970,0.5944921156,975.0
0,973,0.5944921156,970.0
0,973,0.5944921156,975.0
0,971,0.5944921156,975.0
0,972,0.579259709,972.0
0,971,0.5944921156,972.0
0,970,0.6097245222,972.0
0,972,0.6249569288,970.0
0,972,0.6401893354,972.0
0,974,0.6401893354,972.0
0,973,0.6401893354,975.0
0,972,0.6401893354,975.0
0,971,0.6401893354,972.0
0,971,0.6401893354,972.0
0,973,0.647919678,972.0
0,971,0.647919678,975.0
0,969,0.640417614,972.0
0,969,0.6251852074,971.0
0,967,0.6176831434,971.0
0,970,0.6099528008,966.0
0,972,0.5947203942,972.0
0,970,0.5869900516,972.0
0,970,0.5869900516,972.0
0,969,0.5713733346,972.0
0,966,0.5634869602,967.0
0,968,0.5476350184,965.0
0,969,0.539748644,967.0
0,968,0.5318622696,971.0
0,967,0.5318622696,966.0
0,960,0.5318622696,966.0
0,962,0.5160103278,960.0
0,965,0.4921928186,962.0
0,968,0.4683753094,963.0
0,970,0.4524441746,967.0
0,969,0.4365130398,972.0
0,967,0.4523649816,968.0
0,966,0.4682169234,966.0
0,968,0.4761032978,965.0
0,969,0.4761032978,967.0
0,967,0.4920344326,967.0
0,967,0.515616717,966.0
0,966,0.5391990014,966.0
0,966,0.5707468532,965.0
0,967,0.5945643624,966.0
0,967,0.6024507368,966.0
0,968,0.5947203942,966.0
0,965,0.5869900516,967.0
0,965,0.5869900516,963.0
0,965,0.5869900516,963.0
0,966,0.5869900516,965.0
0,967,0.5947203942,965.0
0,967,0.6024507368,966.0
0,966,0.6024507368,966.0
0,965,0.6101810794,966.0
0,966,0.625413486,965.0
0,966,0.63291555,965.0
0,971,0.6251852074,966.0
0,970,0.6251852074,972.0
0,968,0.6174548648,972.0
0,967,0.6022224582,967.0
0,965,0.5869900516,966.0
0,969,0.5631725424,965.0
0,971,0.539590258,967.0
0,969,0.5157727488,972.0
0,970,0.4919552396,967.0
0,969,0.460251356,972.0
0,968,0.4682169234,967.0
0,972,0.4682169234,967.0
0,971,0.4920344326,972.0
0,972,0.5158519418,972.0
0,971,0.5475558254,972.0
0,969,0.5711381098,972.0
0,971,0.5947203942,967.0
0,974,0.5947203942,972.0
0,977,0.5947203942,975.0
0,978,0.6024507368,975.0
0,978,0.6024507368,976.0
0,979,0.6024507368,976.0
0,978,0.6101810794,976.0
0,984,0.617911422,976.0
