annotCls,ecg,anomalyScore,multiStepBestPredictions.1
0,980,1.0,None
0,980,1.0,980.0
0,984,1.0,980.0
0,984,0.0,984.0
0,984,0.0,988.0
0,981,0.0,986.8
0,980,0.0,982.96
0,984,0.0,981.96
0,984,0.0,985.96
0,984,0.0,986.572
0,982,0.0,985.8004
0,980,0.0,983.26028
0,983,0.0,981.26028
0,983,0.0,984.26028
0,984,0.0,984.26028
0,986,0.0,985.26028
0,983,0.0,987.182196
0,980,0.0,984.182196
0,980,0.0,981.182196
0,978,0.0,981.182196
0,981,0.0,979.182196
0,979,0.0,982.182196
0,980,0.0,980.182196
0,979,0.0,981.182196
0,976,0.0,980.182196
0,978,0.0,977.182196
0,979,0.0,979.182196
0,981,0.0,980.182196
0,978,0.0,982.182196
0,976,0.0,979.182196
0,974,0.0,977.182196
0,977,0.0,975.182196
0,975,0.0,978.182196
0,976,0.0,976.182196
0,973,0.0,977.182196
0,973,0.0,974.182196
0,975,0.0,974.182196
0,976,0.0,976.182196
0,977,0.0,977.182196
0,977,0.0,978.182196
0,976,0.0,978.182196
0,975,0.0,977.182196
0,974,0.0,976.182196
0,976,0.0,975.182196
0,976,0.0,977.182196
0,974,0.0,977.182196
0,972,0.0,975.182196
0,974,0.0,973.182196
0,970,0.025,975.182196
0,972,0.025,971.182196
0,973,0.0,973.182196
0,974,1.0,974.182196
0,971,1.0,975.0
0,971,1.0,968.0
0,971,1.0,971.0
0,970,1.0,971.0
0,971,1.0,969.0
0,971,1.0,972.0
0,969,1.0,971.0
0,968,1.0,967.0
0,968,1.0,967.0
0,971,1.0,968.0
0,973,1.0,974.0
0,973,1.0,975.0
0,972,1.0,973.0
0,970,1.0,971.0
0,970,1.0,968.0
0,971,1.0,970.0
0,974,1.0,972.0
0,973,1.0,977.0
0,975,1.0,972.0
0,972,1.0,977.0
0,974,1.0,969.0
0,973,1.0,976.0
0,975,1.0,972.0
0,974,1.0,977.0
0,974,1.0,973.0
0,972,1.0,974.0
0,972,1.0,970.0
0,969,1.0,972.0
0,975,1.0,966.0
0,974,1.0,981.0
0,973,1.0,973.0
0,972,1.0,972.0
0,971,1.0,971.0
0,973,1.0,970.0
0,974,1.0,975.0
0,973,1.0,975.0
0,973,1.0,972.0
0,971,1.0,973.0
0,973,1.0,969.0
0,976,1.0,975.0
0,979,1.0,979.0
0,980,1.0,982.0
0,979,1.0,981.0
0,982,1.0,978.0
0,983,1.0,985.0
0,987,1.0,984.0
0,987,1.0,991.0
0,989,1.0,987.0
0,989,1.0,991.0
0,989,1.0,989.0
0,991,0.575,988.278453798
0,994,1.0,990.278453798
0,997,0.875,993.278453798
0,997,0.15,996.278453798
0,995,0.0,1000.0
0,994,0.0,997.1
0,992,0.0,996.1
0,993,0.0,994.1
0,991,0.025,995.1
0,989,0.05,993.1
0,989,0.025,988.96
0,987,0.05,988.96
0,988,0.0,986.96
0,988,0.0,987.96
0,990,0.0,987.96
0,994,0.0,989.96
0,992,0.0,993.96
0,988,0.0,994.46
0,985,0.075,987.372
0,986,0.0,984.372
0,990,0.0,985.372
0,994,0.0,989.372
0,994,0.0,993.372
0,991,0.0,993.372
0,984,0.175,993.0454
0,982,0.0,985.182196
0,982,0.0,983.182196
0,976,0.025,983.182196
0,973,0.1,976.533082226
0,970,0.35,973.533082226
0,970,0.55,969.278453798
0,971,0.75,968.594917658
0,970,0.025,970.016442361
0,966,0.2,969.016442361
0,967,0.25,965.011509653
0,967,0.05,966.011509653
0,965,0.0,966.011509653
0,965,0.0,964.867
0,967,0.0,964.867
0,967,0.0,965.6
0,967,0.0,967.5069
0,963,0.05,967.35483
0,962,0.1,963.248381
0,964,0.025,962.248381
0,965,0.0,964.248381
0,964,0.0,965.248381
0,961,0.0,964.248381
0,959,0.05,960.7238
0,959,0.05,958.7238
0,960,0.0,958.7238
0,964,0.0,959.7238
0,961,0.0,963.7238
0,961,0.0,962.00666
0,959,0.0,962.00666
0,958,0.0,960.00666
0,955,0.075,959.00666
0,948,0.775,956.00666
0,942,1.0,947.011509653
0,935,1.0,941.011509653
0,929,0.975,934.011509653
0,922,0.9,928.011509653
0,920,0.95,921.011509653
0,930,0.875,913.0
0,955,0.8,923.0
0,984,0.775,954.011509653
0,1016,0.975,983.7607855
0,1058,1.0,1017.1605104
0,1111,1.0,1057.47315756
0,1168,1.0,1110.01150965
0,1207,0.95,1167.01150965
0,1225,0.9,1264.0
0,1210,1.0,1224.47315756
0,1153,0.975,1209.01150965
0,1078,1.0,1152.01150965
0,1005,0.95,1077.01150965
0,954,1.0,1004.01150965
0,935,0.75,955.00666
0,931,0.75,953.0
0,938,0.8,932.1605104
0,949,0.475,934.0
0,955,0.825,933.008056757
0,955,0.925,939.008056757
0,957,0.125,956.46649886
0,953,0.025,958.026549202
0,957,0.0,954.026549202
0,958,0.0,958.026549202
0,960,0.0,959.361847203
0,961,0.025,961.361847203
0,957,0.0,962.361847203
0,954,0.0,958.361847203
0,953,0.0,953.753293042
0,953,0.0,952.753293042
0,956,0.0,952.753293042
0,956,0.0,955.753293042
0,955,0.0,956.72730513
0,952,0.0,955.509113591
0,951,0.025,952.509113591
0,953,0.0,951.509113591
0,953,0.0,953.509113591
0,954,0.0,953.509113591
0,950,0.025,953.4346933
0,951,0.025,949.4346933
0,949,0.025,950.4346933
0,953,0.0,948.4346933
0,955,0.0,952.4346933
0,955,0.0,955.80428531
0,955,0.0,955.80428531
0,954,0.0,955.80428531
0,954,0.0,954.80428531
0,953,0.0,954.80428531
0,953,0.0,953.80428531
0,955,0.0,953.262999717
0,952,0.0,955.184099802
0,952,0.0,952.184099802
0,951,0.0,951.228869861
0,957,0.0,950.460208903
0,957,0.0,956.460208903
0,955,0.0,956.460208903
0,953,0.0,954.460208903
0,953,0.0,952.460208903
0,952,0.0,952.022146232
0,954,0.0,951.315502362
0,957,0.0,953.220851654
0,957,0.0,956.220851654
0,952,0.0,956.220851654
0,953,0.0,951.220851654
0,950,0.0,950.954596158
0,950,0.0,948.86821731
0,953,0.0,948.86821731
0,954,0.0,951.86821731
0,952,0.0,954.107752117
0,948,0.05,952.107752117
0,947,0.1,947.475426482
0,947,0.05,946.475426482
0,950,0.0,946.475426482
0,952,0.0,949.475426482
0,951,0.0,951.475426482
0,950,0.0,951.232798537
0,946,0.0,950.232798537
0,948,0.0,946.232798537
0,950,0.0,948.232798537
0,949,0.0,950.232798537
0,950,0.0,949.232798537
0,949,0.0,950.232798537
0,945,0.05,949.232798537
0,950,0.0,944.905024758
0,952,0.0,950.232798537
0,953,0.0,952.232798537
0,954,0.0,953.762958976
0,954,0.0,954.834071283
0,952,0.0,954.834071283
0,951,0.0,952.834071283
0,954,0.0,950.983849898
0,952,0.0,953.983849898
0,949,0.0,951.983849898
0,946,0.0,948.388694929
0,948,0.0,946.103462131
0,948,0.0,947.388694929
0,948,0.0,947.388694929
0,947,0.0,947.388694929
0,945,0.0,946.388694929
0,943,0.075,944.388694929
0,940,0.25,943.103462131
0,940,0.15,940.103462131
0,942,0.0,940.103462131
0,943,0.0,942.103462131
0,942,0.0,943.103462131
0,941,0.0,942.103462131
0,939,0.0,940.7398524
0,940,0.0,938.7398524
0,943,0.0,939.7398524
0,943,0.0,942.388694929
0,944,0.0,943.71789668
0,940,0.0,944.502527676
0,938,0.025,940.502527676
0,942,0.0,938.502527676
0,947,0.0,941.388694929
0,947,0.0,946.388694929
0,950,0.0,946.388694929
0,949,0.0,949.388694929
0,949,0.0,948.388694929
0,953,0.0,948.388694929
0,956,0.0,952.388694929
0,959,0.025,956.77208645
0,962,0.25,959.77208645
0,961,0.2,962.380869346
0,958,0.0,961.77208645
0,962,0.0,958.77208645
0,962,0.0,962.77208645
0,960,0.0,962.77208645
0,960,0.0,960.77208645
0,962,0.0,960.77208645
0,963,0.0,962.77208645
0,968,0.5,963.77208645
0,968,0.95,968.586155788
0,969,0.9,968.586155788
0,967,0.0,970.62927604
0,966,0.0,968.62927604
0,964,0.075,966.540493228
0,965,0.0,964.540493228
0,968,0.0,965.540493228
0,969,0.0,968.540493228
0,967,0.0,970.27834526
0,965,0.0,968.27834526
0,966,0.0,965.294841682
0,968,0.0,966.294841682
0,970,0.0,968.294841682
0,970,0.0,970.806389177
0,967,0.0,970.806389177
0,968,0.0,967.806389177
0,968,0.0,967.664472424
0,969,0.0,968.065130697
0,966,0.0,969.045591488
0,964,0.0,966.045591488
0,963,0.0,964.045591488
0,964,0.0,963.045591488
0,966,0.0,964.045591488
0,967,0.0,966.045591488
0,967,0.0,967.045591488
0,964,0.0,967.331914041
0,962,0.0,964.232339829
0,960,0.0,962.232339829
0,960,0.0,960.232339829
0,963,0.0,960.232339829
0,964,0.0,963.232339829
0,964,0.0,964.232339829
0,964,0.0,964.232339829
0,963,0.0,964.232339829
0,961,0.0,963.232339829
0,964,0.0,960.825797226
0,964,0.0,964.232339829
0,961,0.0,964.778058058
0,960,0.0,961.544640641
0,958,0.0,960.544640641
0,956,0.0,958.544640641
0,959,0.0,956.77208645
0,961,0.0,959.544640641
0,957,0.0,961.544640641
0,957,0.0,957.77208645
0,956,0.0,957.77208645
0,952,0.0,956.77208645
0,958,0.0,952.77208645
0,958,0.0,958.544640641
0,959,0.0,958.544640641
0,958,0.0,959.544640641
0,958,0.0,958.544640641
0,957,0.0,957.340460515
0,959,0.0,956.340460515
0,958,0.0,959.544640641
0,957,0.0,958.544640641
0,956,0.0,956.340460515
0,954,0.0,955.340460515
0,955,0.0,953.340460515
0,953,0.0,954.340460515
0,956,0.0,952.340460515
0,955,0.0,954.938322361
0,953,0.0,953.938322361
0,952,0.0,951.938322361
0,953,0.0,950.656825652
0,957,0.0,951.759777957
0,956,0.0,956.43184457
0,958,0.0,955.43184457
0,954,0.0,957.43184457
0,952,0.0,953.43184457
0,953,0.0,951.43184457
0,956,0.0,952.002291199
0,957,0.0,955.601603839
0,958,0.0,956.601603839
0,955,0.0,957.601603839
0,955,0.0,954.601603839
0,950,0.0,954.601603839
0,950,0.0,949.601603839
0,949,0.0,949.601603839
0,954,0.0,948.601603839
0,954,0.0,953.601603839
0,956,0.0,953.601603839
0,958,0.0,955.601603839
0,956,0.0,957.601603839
0,955,0.0,955.601603839
0,953,0.0,954.601603839
0,952,0.0,952.601603839
0,952,0.0,951.121122687
0,949,0.0,951.084785881
0,950,0.0,948.359350117
0,951,0.0,949.359350117
0,951,0.0,950.359350117
0,956,0.0,950.359350117
0,960,0.0,955.359350117
0,961,0.0,961.807188442
0,962,0.0,962.807188442
0,961,0.0,962.544640641
0,961,0.0,961.544640641
0,960,0.0,961.544640641
0,963,0.0,959.359350117
0,965,0.0,963.544640641
0,966,0.0,965.232339829
0,966,0.0,966.232339829
0,966,0.0,966.232339829
0,970,0.0,966.232339829
0,971,0.025,970.232339829
0,973,0.1,971.232339829
0,975,0.15,973.232339829
0,975,0.075,975.232339829
0,976,0.0,975.232339829
0,972,0.0,976.232339829
0,969,0.0,972.232339829
0,968,0.0,969.232339829
0,973,0.0,968.232339829
0,973,0.0,974.694
0,971,0.0,974.694
0,969,0.0,970.86263788
0,968,0.0,968.86263788
0,965,0.025,967.86263788
0,963,0.0,964.603846516
0,965,0.0,964.281248449
0,966,0.0,964.603846516
0,969,0.0,965.603846516
0,970,0.0,968.603846516
0,965,0.0,969.603846516
0,961,0.1,964.603846516
0,963,0.0,960.359350117
0,957,0.0,963.296873914
0,952,0.0,956.359350117
0,950,0.0,951.359350117
0,949,0.0,948.051545082
0,950,0.0,947.051545082
0,947,0.0,948.051545082
0,944,0.025,946.524220025
0,942,0.05,943.524220025
0,944,0.05,941.524220025
0,946,0.0,944.486238561
0,947,0.0,944.051545082
0,947,0.025,945.051545082
0,947,0.025,946.524220025
0,945,0.0,945.051545082
0,940,0.1,944.524220025
0,942,0.0,940.486238561
0,944,0.0,942.486238561
0,944,0.0,944.940366993
0,947,0.0,944.940366993
0,943,0.0,945.051545082
0,941,0.0,943.940366993
0,938,0.0,940.458256895
0,940,0.0,937.458256895
0,944,0.0,939.458256895
0,945,0.0,942.051545082
0,947,0.0,943.051545082
0,946,0.0,945.051545082
0,944,0.0,944.051545082
0,946,0.0,942.051545082
0,948,0.0,944.051545082
0,947,0.0,946.051545082
0,947,0.0,945.051545082
0,941,0.0,945.051545082
0,934,0.375,940.458256895
0,930,0.9,934.40284
0,926,1.0,930.40284
0,922,0.725,926.40284
0,917,0.475,918.0
0,904,0.525,913.0
0,900,0.6,905.059431028
0,909,0.75,901.059431028
0,935,0.775,905.0
0,963,1.0,931.0
0,990,0.975,963.80781174
0,1022,1.0,991.3646486
0,1062,1.0,1022.396936
0,1119,1.0,1062.396936
0,1165,1.0,1120.05943103
0,1198,0.95,1222.0
0,1214,0.725,1255.0
0,1205,1.0,1215.05943103
0,1158,0.8,1201.0
0,1082,1.0,1158.396936
0,1004,0.625,1082.396936
0,949,0.6,1004.396936
0,926,0.95,949.396936005
0,920,0.05,922.0
0,922,0.05,916.0
0,934,0.3,918.0
0,939,0.575,930.0
0,940,0.05,938.458256895
0,939,0.05,939.458256895
0,936,0.25,938.458256895
0,935,0.4,936.0447381
0,940,0.325,931.0
0,940,0.0,940.0447381
0,938,0.175,940.0447381
0,940,0.1,938.26747
0,935,0.375,940.26747
0,934,0.25,935.787229
0,931,0.075,934.787229
0,935,0.0,927.0
0,936,0.0,935.787229
0,937,0.0,936.787229
0,932,0.275,937.787229
0,932,0.0,928.0
0,935,0.0,928.0
0,937,0.0,935.787229
0,937,0.0,937.787229
0,937,0.15,936.928
0,934,0.15,936.9496
0,933,0.075,933.96472
0,934,0.0,932.96472
0,937,0.0,933.96472
0,938,0.0,936.96472
0,938,0.05,938.875304
0,936,0.05,938.875304
0,935,0.075,936.875304
0,937,0.0,935.0127128
0,936,0.0,937.0127128
0,936,0.025,936.60889896
0,938,0.025,936.126229272
0,936,0.0,938.08836049
0,936,0.0,936.08836049
0,938,0.0,935.461852343
0,940,0.0,937.62329664
0,941,0.025,939.62329664
0,937,0.025,940.62329664
0,935,0.025,936.62329664
0,934,0.05,933.536307648
0,938,0.0,932.536307648
0,937,0.0,936.536307648
0,937,0.0,935.536307648
0,935,0.025,935.675415354
0,932,0.15,934.072790748
0,931,0.0,931.072790748
0,932,0.0,930.072790748
0,934,0.0,931.072790748
0,934,0.0,933.072790748
0,931,0.0,933.072790748
0,930,0.025,931.24199671
0,929,0.1,930.24199671
0,931,0.0,929.24199671
0,934,0.0,931.24199671
0,935,0.0,933.072790748
0,933,0.0,934.072790748
0,933,0.0,934.069397697
0,932,0.0,933.148578388
0,934,0.0,932.104004872
0,935,0.0,934.104004872
0,935,0.0,935.67280341
0,935,0.0,934.072790748
0,935,0.0,934.072790748
0,933,0.0,934.072790748
0,937,0.0,933.67280341
0,937,0.0,936.072790748
0,939,0.0,937.550953523
0,936,0.0,939.385667466
0,936,0.0,936.385667466
0,935,0.0,935.369967226
0,937,0.0,934.558977059
0,939,0.0,936.558977059
0,937,0.0,939.291283941
0,937,0.0,937.291283941
0,933,0.0,936.603898759
0,931,0.0,932.722729131
0,933,0.0,929.709673671
0,932,0.0,932.722729131
0,933,0.0,931.722729131
0,931,0.0,932.722729131
0,928,0.15,931.087740099
0,926,0.3,928.087740099
0,925,0.3,926.087740099
0,928,0.025,925.087740099
0,926,0.0,928.087740099
0,926,0.0,926.087740099
0,924,0.025,926.087740099
0,922,0.025,915.397
0,924,0.0,922.087740099
0,925,0.0,924.087740099
0,924,0.0,916.397
0,922,0.0,915.397
0,921,0.0,919.768
0,920,0.0,920.96
0,923,0.0,919.96
0,925,0.0,922.96
0,926,0.0,925.872
0,928,0.0,926.872
0,929,0.0,928.872
0,930,0.0,929.872
0,934,0.0,924.2779
0,937,0.0,933.722729131
0,939,0.0,936.722729131
0,940,0.0,939.705910392
0,942,0.05,940.705910392
0,942,0.0,940.051545082
0,944,0.0,940.051545082
0,950,0.175,944.705910392
0,951,0.075,948.051545082
0,953,0.075,949.051545082
0,952,0.05,951.936081557
0,954,0.025,950.936081557
0,954,0.0,952.95525709
0,960,0.025,952.95525709
0,962,0.0,968.965468218
0,961,0.025,961.603846516
0,959,0.0,969.965468218
0,957,0.05,957.95525709
0,962,0.075,955.95525709
0,962,0.0,970.965468218
0,963,0.0,970.965468218
0,962,0.0,962.603846516
0,961,0.0,968.575827752
0,961,0.0,967.575827752
0,963,0.0,967.575827752
0,967,0.0,969.575827752
0,965,0.0,966.603846516
0,964,0.0,970.203079427
0,962,0.0,969.203079427
0,960,0.0,967.203079427
0,964,0.0,965.203079427
0,966,0.0,964.922692561
0,967,0.0,966.922692561
0,964,0.0,967.922692561
0,963,0.0,969.203079427
0,961,0.0,968.203079427
0,961,0.0,964.342155599
0,963,0.0,964.342155599
0,964,0.0,963.945884793
0,964,0.0,964.945884793
0,962,0.0,964.945884793
0,961,0.0,960.95525709
0,964,0.0,959.95525709
0,963,0.0,964.945884793
0,963,0.0,965.939508919
0,965,0.0,964.757656243
0,965,0.0,966.23035937
0,962,0.0,966.23035937
0,964,0.0,963.23035937
0,964,0.0,965.23035937
0,965,0.0,965.23035937
0,963,0.0,966.23035937
0,961,0.0,964.23035937
0,961,0.0,961.261251559
0,961,0.0,961.261251559
0,963,0.0,961.261251559
0,960,0.0,963.261251559
0,960,0.0,960.782876091
0,960,0.0,960.782876091
0,958,0.075,960.782876091
0,960,0.0,956.95525709
0,959,0.0,960.782876091
0,958,0.0,959.782876091
0,959,0.0,956.95525709
0,958,0.0,959.782876091
0,956,0.075,956.95525709
0,960,0.0,954.95525709
0,960,0.0,960.782876091
0,962,0.0,960.782876091
0,959,0.0,962.782876091
0,959,0.0,959.000447192
0,957,0.0,959.000447192
0,959,0.0,955.95525709
0,959,0.0,959.000447192
0,961,0.0,959.000447192
0,960,0.0,961.000447192
0,958,0.0,960.600313034
0,956,0.0,958.390228325
0,958,0.0,954.95525709
0,963,0.0,958.390228325
0,961,0.0,963.782876091
0,958,0.0,961.600313034
0,959,0.0,956.95525709
0,960,0.0,958.820219124
0,961,0.0,959.820219124
0,963,0.0,960.820219124
0,962,0.0,963.174153387
0,962,0.0,962.174153387
0,962,0.0,961.821907371
0,962,0.0,961.87533516
0,965,0.0,961.912734612
0,967,0.0,964.938914228
0,965,0.0,967.945884793
0,962,0.0,964.938914228
0,962,0.0,961.938914228
0,961,0.0,961.05723996
0,965,0.0,960.340067972
0,963,0.0,964.23804758
0,964,0.0,962.23804758
0,963,0.0,963.23804758
0,962,0.0,962.23804758
0,959,0.0,961.23804758
0,962,0.0,958.166633306
0,963,0.0,961.166633306
0,963,0.0,963.316643314
0,961,0.0,963.316643314
0,960,0.0,961.316643314
0,962,0.0,959.62165032
0,964,0.0,961.62165032
0,966,0.0,964.335155224
0,966,0.0,966.335155224
0,970,0.075,966.335155224
0,969,0.05,971.262119355
0,975,0.575,970.262119355
0,978,1.0,975.877855203
0,981,1.0,977.499121204
0,981,0.275,983.33178
0,978,0.0,983.37
0,977,0.0,979.659
0,979,0.0,978.659
0,982,0.0,980.659
0,983,0.025,983.659
0,985,0.075,984.659
0,986,0.075,986.659
0,983,0.0,987.659
0,983,0.0,984.0
0,982,0.0,982.8
0,985,0.0,981.86
0,983,0.0,984.86
0,982,0.0,982.86
0,979,0.0,981.302
0,976,0.025,978.302
0,979,0.0,975.302
0,982,0.0,978.302
0,982,0.0,981.302
0,980,0.0,981.302
0,976,0.0,981.1004
0,978,0.0,977.1004
0,984,0.0,979.1004
0,990,0.325,985.1004
0,989,0.25,991.1004
0,982,0.0,990.1004
0,975,0.0,983.1004
0,970,0.75,973.67028
0,972,0.025,971.262119355
0,971,0.0,970.67028
0,965,0.0,972.262119355
0,965,0.0,965.335155224
0,960,0.0,965.335155224
0,957,0.025,960.335155224
0,958,0.025,955.95525709
0,958,0.025,958.335155224
0,960,0.025,958.335155224
0,958,0.025,960.335155224
0,956,0.0,957.687793926
0,956,0.0,954.95525709
0,955,0.0,954.95525709
0,957,0.0,953.95525709
0,959,0.0,955.951754161
0,956,0.0,959.335155224
0,953,0.025,954.95525709
0,953,0.0,951.95525709
0,954,0.0,951.95525709
0,955,0.0,952.95525709
0,957,0.0,953.95525709
0,956,0.0,955.366227913
0,955,0.0,954.366227913
0,955,0.0,953.556359539
0,958,0.0,953.556359539
0,957,0.0,956.556359539
0,955,0.0,955.556359539
0,947,0.35,954.975368886
0,937,0.0,945.95525709
0,928,0.275,937.705910392
0,925,0.0,929.261418069
0,920,0.025,926.261418069
0,915,0.375,920.872
0,922,0.125,913.67028
0,944,0.325,923.261418069
0,978,0.975,941.494137274
0,1021,0.85,976.67028
0,1066,0.75,1061.0
0,1118,0.6,1099.0
0,1178,0.575,1164.0
0,1227,0.45,1224.0
0,1261,0.275,1282.5
0,1274,0.6,1316.5
0,1251,1.0,1329.5
0,1181,1.0,1250.80014905
0,1089,1.0,1180.80014905
0,1009,0.65,1088.985039
0,954,0.675,1008.80014905
0,932,0.275,953.80014905
0,924,0.025,929.494137274
0,922,0.025,926.7104
0,924,0.025,924.7104
0,932,0.0,922.42259
0,940,0.075,933.261418069
0,950,0.625,937.494137274
0,956,0.2,948.95525709
0,955,0.025,954.95525709
0,955,0.025,953.95525709
0,953,0.025,953.95525709
0,950,0.1,951.95525709
0,950,0.075,948.95525709
0,951,0.0,948.95525709
0,951,0.0,949.95525709
0,948,0.0,950.867930754
0,946,0.025,947.907551528
0,943,0.0,944.368679963
0,947,0.25,940.494137274
0,949,0.05,946.907551528
0,950,0.0,948.907551528
0,949,0.0,948.368679963
0,946,0.0,947.368679963
0,944,0.0,946.468607736
0,946,0.15,944.468607736
0,949,0.1,946.468607736
0,948,0.0,949.468607736
0,947,0.0,949.228025415
0,946,0.0,948.228025415
0,946,0.025,947.228025415
0,949,0.0,947.228025415
0,949,0.0,950.228025415
0,950,0.0,950.75961779
0,952,0.0,951.231732453
0,947,0.0,953.162212717
0,947,0.0,948.162212717
0,948,0.0,948.162212717
0,953,0.025,949.162212717
0,951,0.0,954.162212717
0,950,0.0,952.162212717
0,947,0.0,951.162212717
0,948,0.0,947.513548902
0,950,0.0,948.513548902
0,952,0.0,950.513548902
0,950,0.0,952.959484231
0,950,0.0,950.959484231
0,948,0.0,950.071638962
0,946,0.0,948.050147273
0,949,0.0,946.050147273
0,948,0.0,949.050147273
0,948,0.0,948.935103091
0,949,0.0,948.935103091
0,947,0.0,949.935103091
0,945,0.0,947.954572164
0,947,0.025,945.954572164
0,948,0.0,947.954572164
0,950,0.0,948.954572164
0,950,0.0,950.954572164
0,949,0.0,951.268200515
0,947,0.0,949.88774036
0,951,0.0,947.321418252
0,951,0.0,951.321418252
0,950,0.0,951.321418252
0,949,0.0,950.321418252
0,951,0.0,948.924992777
0,950,0.0,950.647494944
0,950,0.0,949.647494944
0,952,0.0,949.453246461
0,950,0.0,951.617272522
0,948,0.0,949.617272522
0,947,0.0,947.132090766
0,945,0.0,946.132090766
0,946,0.0,944.132090766
0,948,0.0,945.132090766
0,947,0.0,947.132090766
0,946,0.0,946.132090766
0,944,0.0,945.132090766
0,944,0.0,943.132090766
0,943,0.0,943.132090766
0,946,0.0,942.132090766
0,946,0.0,945.132090766
0,942,0.0,945.132090766
0,941,0.0,939.494137274
0,939,0.0,938.494137274
0,942,0.0,936.494137274
0,944,0.0,941.132090766
0,944,0.0,943.132090766
0,943,0.0,943.132090766
0,940,0.0,942.132090766
0,940,0.0,937.494137274
0,943,0.0,937.494137274
0,946,0.0,942.132090766
0,945,0.0,945.132090766
0,946,0.0,944.132090766
0,946,0.0,945.132090766
0,945,0.0,945.132090766
0,947,0.0,945.37339237
0,950,0.0,946.132090766
0,951,0.0,949.132090766
0,953,0.0,951.292463536
0,951,0.0,953.292463536
0,953,0.0,951.292463536
0,956,0.0,953.292463536
0,960,0.05,956.131004939
0,960,0.025,960.345469589
0,960,0.025,960.335155224
0,962,0.0,961.009280099
0,962,0.025,962.706496069
0,964,0.0,962.706496069
0,968,0.225,964.706496069
0,969,0.225,968.076214896
0,968,0.075,970.483483549
0,969,0.0,969.483483549
0,968,0.0,970.483483549
0,973,0.175,969.483483549
0,972,0.025,971.67028
0,974,0.0,970.67028
0,972,0.0,972.67028
0,972,0.0,972.84934
0,972,0.0,972.84934
0,974,0.0,971.0376984
0,975,0.0,973.32638888
0,975,0.0,974.32638888
0,973,0.0,974.32638888
0,974,0.0,972.32638888
0,971,0.0,974.2361766
0,973,0.0,971.46532362
0,974,0.0,973.46532362
0,974,0.0,974.925726534
0,971,0.0,974.948008574
0,970,0.0,971.663606002
0,970,0.0,970.663606002
0,971,0.0,970.663606002
0,972,0.0,971.663606002
0,973,0.0,972.663606002
0,971,0.0,973.663606002
0,970,0.0,971.764524201
0,969,0.0,970.764524201
0,972,0.0,970.483483549
0,973,0.0,972.764524201
0,972,0.0,973.764524201
0,972,0.0,972.835166941
0,972,0.0,972.835166941
0,969,0.0,972.835166941
0,969,0.0,970.483483549
0,972,0.0,970.483483549
0,972,0.0,972.835166941
0,972,0.0,972.835166941
0,967,0.15,972.835166941
0,967,0.0,967.706496069
0,968,0.0,967.706496069
0,969,0.0,968.706496069
0,969,0.0,969.482337049
0,966,0.05,969.482337049
0,963,0.025,966.706496069
0,963,0.0,963.706496069
0,963,0.0,963.706496069
0,964,0.0,963.706496069
0,966,0.0,964.706496069
0,963,0.0,966.835166941
0,961,0.0,963.706496069
0,961,0.0,961.706496069
0,962,0.025,961.706496069
0,965,0.0,962.706496069
0,963,0.0,965.835166941
0,963,0.0,963.706496069
0,962,0.0,962.026703606
0,961,0.0,961.318692524
0,962,0.0,960.223084767
0,963,0.0,961.223084767
0,964,0.0,962.756159337
0,963,0.0,964.129311536
0,961,0.0,963.129311536
0,962,0.0,960.790518075
0,963,0.0,961.790518075
0,964,0.0,963.153362653
0,962,0.0,964.407353857
0,964,0.0,962.407353857
0,962,0.0,963.6851477
0,962,0.0,961.6851477
0,962,0.0,961.17960339
0,966,0.0,961.425722373
0,966,0.0,965.598005661
0,964,0.0,965.598005661
0,963,0.0,963.598005661
0,961,0.0,962.598005661
0,962,0.0,960.418603963
0,963,0.0,961.418603963
0,964,0.0,962.893022774
0,965,0.0,964.225115942
0,963,0.0,965.225115942
0,963,0.0,963.225115942
0,964,0.0,962.557581159
0,967,0.0,963.690306811
0,967,0.0,966.690306811
0,965,0.0,966.690306811
0,964,0.0,964.690306811
0,965,0.0,963.690306811
0,967,0.0,964.690306811
0,965,0.0,966.690306811
0,970,0.0,964.690306811
0,966,0.0,970.835166941
0,965,0.0,965.690306811
0,966,0.0,964.690306811
0,967,0.0,965.690306811
0,975,0.15,966.690306811
0,977,0.025,975.835166941
0,977,0.0,977.835166941
0,978,0.0,977.835166941
0,979,0.0,978.835166941
0,983,0.1,979.835166941
0,986,0.05,982.369196
0,986,0.0,985.369196
0,985,0.0,985.369196
0,988,0.05,984.369196
0,987,0.0,987.369196
0,993,0.175,986.369196
0,992,0.125,993.482337049
0,991,0.0,991.369196
0,991,0.0,990.369196
0,987,0.0,990.0
0,984,0.0,987.835166941
0,982,0.0,984.835166941
0,983,0.0,982.835166941
0,983,0.0,983.835166941
0,985,0.0,983.835166941
0,986,0.0,985.835166941
0,983,0.0,986.835166941
0,982,0.0,983.835166941
0,982,0.0,982.835166941
0,981,0.0,981.39449
0,986,0.0,981.835166941
0,988,0.0,985.39449
0,990,0.0,987.39449
0,987,0.0,991.3623
0,982,0.0,988.3623
0,977,0.125,982.835166941
0,973,0.0,977.835166941
0,972,0.0,973.835166941
0,967,0.1,971.384616859
0,966,0.0,966.690306811
0,964,0.0,965.690306811
0,964,0.0,963.690306811
0,963,0.0,963.690306811
0,961,0.0,962.690306811
0,959,0.0,960.483214768
0,963,0.025,958.483214768
0,963,0.0,962.483214768
0,965,0.0,963.838250338
0,960,0.0,965.586775236
0,961,0.0,960.586775236
0,957,0.05,961.586775236
0,959,0.0,957.292463536
0,960,0.0,959.586775236
0,961,0.0,960.586775236
0,959,0.0,961.586775236
0,956,0.0,959.586775236
0,958,0.0,956.292463536
0,959,0.0,958.586775236
0,961,0.0,959.586775236
0,959,0.0,961.586775236
0,958,0.0,959.586775236
0,955,0.025,958.586775236
0,949,0.05,955.292463536
0,943,0.0,949.292463536
0,937,0.05,941.404724475
0,930,0.05,934.494137274
0,924,0.0,931.261418069
0,917,0.125,926.7104
0,924,0.025,919.7104
0,947,0.275,922.782992648
0,984,0.725,945.404724475
0,1024,0.775,984.05361
0,1069,0.175,1069.0
0,1121,0.15,1124.5
0,1182,0.3,1166.0
0,1232,0.425,1234.0
0,1259,0.125,1277.0
0,1250,0.675,1304.0
0,1192,0.975,1180.0
0,1092,1.0,1190.40472448
0,994,0.8,1075.4895273
0,943,0.975,994.037635935
0,936,0.0,941.404724475
0,951,0.5,933.494137274
0,961,0.225,949.404724475
0,963,0.0,961.586775236
0,958,0.0,966.410742665
0,959,0.0,961.410742665
0,961,0.0,962.410742665
0,959,0.0,964.410742665
0,961,0.0,961.987519866
0,960,0.0,963.987519866
0,957,0.0,962.691263906
0,956,0.025,955.404724475
0,956,0.025,954.404724475
0,959,0.0,954.404724475
0,954,0.0,960.583884734
0,952,0.0,952.404724475
0,952,0.0,950.404724475
0,952,0.0,950.404724475
0,953,0.0,950.404724475
0,951,0.0,951.404724475
0,952,0.025,949.404724475
0,950,0.0,950.404724475
0,951,0.0,948.404724475
0,951,0.0,949.404724475
0,952,0.0,949.404724475
0,953,0.0,950.404724475
0,951,0.0,954.091715909
0,950,0.0,949.404724475
0,949,0.0,948.404724475
0,953,0.0,947.404724475
0,952,0.0,952.814940795
0,953,0.0,951.814940795
0,952,0.0,951.404724475
0,950,0.0,950.404724475
0,950,0.0,948.404724475
0,953,0.0,948.404724475
0,955,0.025,952.48932099
0,955,0.025,954.48932099
0,957,0.0,954.48932099
0,953,0.0,956.48932099
0,953,0.0,952.48932099
0,954,0.0,952.48932099
0,958,0.05,953.48932099
0,956,0.0,959.583884734
0,955,0.0,954.404724475
0,955,0.0,953.404724475
0,952,0.0,953.404724475
0,953,0.0,951.48932099
0,955,0.0,952.48932099
0,954,0.0,954.48932099
0,953,0.0,953.48932099
0,949,0.0,951.404724475
0,950,0.0,947.404724475
0,951,0.0,948.404724475
0,954,0.0,950.942524693
0,954,0.0,954.259767285
0,951,0.0,954.259767285
0,951,0.0,951.259767285
0,949,0.0,950.281837099
0,951,0.0,948.49728597
0,952,0.0,950.49728597
0,954,0.0,952.248100179
0,953,0.0,954.248100179
0,952,0.0,953.248100179
0,952,0.0,952.248100179
0,953,0.0,952.248100179
0,953,0.0,953.248100179
0,954,0.0,953.248100179
0,955,0.0,954.248100179
0,955,0.0,955.248100179
0,953,0.0,955.248100179
0,953,0.0,953.248100179
0,954,0.0,953.248100179
0,952,0.0,953.859722795
0,950,0.0,952.201805957
0,948,0.0,950.248100179
0,948,0.0,947.573670125
0,953,0.0,947.573670125
0,952,0.0,953.201805957
0,950,0.0,953.64126417
0,949,0.0,949.573670125
0,948,0.0,948.101569088
0,947,0.0,947.101569088
0,949,0.0,945.858820495
0,950,0.0,948.101569088
0,951,0.0,949.101569088
0,952,0.0,950.671098361
0,950,0.0,952.069768853
0,952,0.0,950.069768853
0,955,0.0,951.448838197
0,958,0.025,956.64126417
0,959,0.025,959.583884734
0,958,0.0,960.583884734
0,959,0.0,959.247240254
0,958,0.0,960.583884734
0,961,0.0,958.573068178
0,965,0.0,962.583884734
0,968,0.0,967.008719314
0,966,0.0,970.008719314
0,967,0.0,968.008719314
0,967,0.0,969.008719314
0,969,0.0,969.008719314
0,970,0.0,971.008719314
0,973,0.0,969.384616859
0,973,0.0,972.384616859
0,973,0.0,972.384616859
0,972,0.0,972.384616859
0,974,0.0,971.384616859
0,976,0.1,973.269231801
0,976,0.0,975.269231801
0,976,0.0,975.269231801
0,974,0.0,975.269231801
0,975,0.0,973.269231801
0,978,0.0,974.269231801
0,978,0.0,977.269231801
0,979,0.0,977.269231801
0,977,0.0,978.269231801
0,977,0.0,976.269231801
0,976,0.0,976.269231801
0,979,0.0,975.269231801
0,977,0.0,978.73724396
0,979,0.0,976.269231801
0,978,0.0,978.216070772
0,977,0.0,977.216070772
0,975,0.0,976.15124954
0,978,0.0,974.105874678
0,979,0.0,977.105874678
0,978,0.0,979.274112275
0,976,0.0,978.274112275
0,974,0.0,975.891878592
0,974,0.0,973.891878592
0,976,0.0,973.891878592
0,976,0.0,975.891878592
0,978,0.0,975.891878592
0,977,0.0,977.891878592
0,976,0.0,977.524315015
0,973,0.0,976.06702051
0,974,0.0,973.06702051
0,976,0.0,974.06702051
0,976,0.0,976.06702051
0,974,0.0,976.06702051
0,971,0.0,974.06702051
0,969,0.0,973.008719314
0,970,0.0,971.008719314
0,971,0.025,972.008719314
0,970,0.0,970.269231801
0,968,0.0,970.180936388
0,967,0.0,970.008719314
0,965,0.0,969.008719314
0,966,0.0,967.008719314
0,967,0.0,968.008719314
0,968,0.0,969.008719314
0,967,0.0,970.008719314
0,966,0.0,969.008719314
0,966,0.0,968.008719314
0,968,0.0,968.008719314
0,969,0.0,967.99896359
0,968,0.0,969.599274513
0,968,0.0,968.599274513
0,966,0.0,968.119492159
0,965,0.0,968.008719314
0,968,0.0,967.008719314
0,969,0.0,968.083644511
0,970,0.0,969.958551158
0,967,0.0,970.958551158
0,965,0.0,969.008719314
0,965,0.0,967.008719314
0,967,0.0,967.008719314
0,966,0.0,969.008719314
0,966,0.0,966.439690067
0,966,0.0,966.439690067
0,963,0.175,966.439690067
0,963,0.0,965.008719314
0,965,0.0,965.008719314
0,968,0.0,967.008719314
0,966,0.0,968.439690067
0,963,0.0,968.008719314
0,964,0.0,965.008719314
0,964,0.0,966.008719314
0,966,0.0,966.008719314
0,966,0.0,968.008719314
0,966,0.0,968.008719314
0,965,0.0,968.008719314
0,965,0.0,967.008719314
0,964,0.0,967.008719314
0,966,0.0,966.008719314
0,969,0.0,968.008719314
0,970,0.0,970.207783047
0,968,0.0,970.17865883
0,967,0.0,969.207783047
0,965,0.0,967.245448133
0,967,0.0,967.008719314
0,968,0.0,966.871813693
0,969,0.0,968.510269585
0,967,0.0,969.65718871
0,965,0.0,967.65718871
0,964,0.0,964.860032097
0,966,0.0,966.008719314
0,968,0.0,965.860032097
0,969,0.0,967.860032097
0,971,0.0,969.502022468
0,970,0.0,971.502022468
0,971,0.0,970.502022468
0,979,0.05,971.328279979
0,983,0.125,979.06702051
0,982,0.025,983.06702051
0,981,0.0,982.06702051
0,982,0.0,981.06702051
0,981,0.0,982.06702051
0,986,0.0,981.06702051
0,988,0.0,986.05361
0,991,0.125,989.537527
0,991,0.125,992.537527
0,991,0.025,992.537527
0,989,0.0,992.537527
0,990,0.0,991.499
0,989,0.0,992.499
0,989,0.0,991.499
0,985,0.0,988.3339
0,979,0.0,987.223441934
0,979,0.0,979.06702051
0,984,0.075,979.06702051
0,983,0.0,986.223441934
0,981,0.0,985.223441934
0,978,0.0,981.06702051
0,976,0.0,978.06702051
0,978,0.0,975.269231801
0,981,0.0,977.146914357
0,986,0.025,981.00284005
0,988,0.0,985.53373
0,990,0.0,987.53373
0,991,0.0,989.53373
0,987,0.0,990.53373
0,982,0.0,986.53373
0,979,0.0,983.569486548
0,976,0.0,978.269231801
0,973,0.05,975.269231801
0,969,0.075,972.269231801
0,965,0.0,971.008719314
0,965,0.0,967.008719314
0,967,0.0,965.502022468
0,966,0.0,967.502022468
0,964,0.0,966.951415727
0,961,0.175,964.951415727
0,961,0.0,961.101147725
0,962,0.025,961.50610352
0,963,0.025,962.354272464
0,960,0.125,963.354272464
0,959,0.0,959.448838197
0,958,0.0,958.347990725
0,956,0.0,957.347990725
0,959,0.0,955.448838197
0,961,0.0,958.770803407
0,961,0.0,960.347990725
0,960,0.0,961.143593507
0,960,0.0,960.100515455
0,959,0.0,959.770360819
0,961,0.0,958.839252573
0,960,0.0,960.839252573
0,959,0.0,960.487476801
0,958,0.0,959.041233761
0,953,0.05,958.041233761
0,944,0.05,951.858820495
0,938,0.025,941.494137274
0,934,0.05,935.494137274
0,930,0.05,932.782992648
0,922,0.175,928.782992648
0,915,0.25,921.6221932
0,925,0.275,912.33553524
0,954,0.425,922.33553524
0,989,0.9,952.858820495
0,1026,0.75,988.53373
0,1070,0.05,1071.0
0,1123,0.1,1120.0
0,1177,0.1,1173.0
0,1220,0.125,1227.0
0,1238,0.175,1278.2
0,1222,0.65,1296.2
0,1161,0.95,1164.0
0,1067,0.9,1159.85882049
0,985,0.975,1067.27050676
0,939,0.7,985.07158224
0,936,0.025,936.494137274
0,944,0.25,933.494137274
0,954,0.25,942.858820495
0,956,0.0,952.858820495
0,953,0.0,955.448838197
0,955,0.0,952.448838197
0,958,0.0,954.448838197
0,957,0.0,958.041233761
0,958,0.0,956.448838197
0,954,0.0,958.041233761
0,951,0.0,953.448838197
0,952,0.0,950.448838197
0,953,0.0,950.714186738
0,952,0.0,951.714186738
0,951,0.0,950.714186738
0,951,0.0,949.714186738
0,946,0.05,949.799930717
0,949,0.125,938.999751508
0,953,0.0,948.159951502
0,953,0.0,952.159951502
0,952,0.0,952.159951502
0,950,0.025,951.159951502
0,950,0.025,949.159951502
0,951,0.0,948.811966051
0,952,0.0,950.168376236
0,953,0.0,951.717863365
0,951,0.0,952.717863365
0,952,0.0,950.717863365
0,950,0.0,951.202504356
0,953,0.0,949.202504356
0,954,0.0,951.841753049
0,955,0.0,952.841753049
0,953,0.0,953.841753049
0,952,0.0,951.841753049
0,948,0.0,950.841753049
0,950,0.0,946.841753049
0,949,0.0,948.841753049
0,951,0.0,948.789227134
0,951,0.0,950.789227134
0,949,0.0,951.452458994
0,949,0.0,949.316721296
0,949,0.0,949.316721296
0,951,0.0,949.316721296
0,950,0.0,951.316721296
0,950,0.0,950.821704907
0,947,0.0,950.275193435
0,949,0.0,947.192635404
0,950,0.0,949.192635404
0,953,0.0,950.192635404
0,952,0.0,953.434844783
0,953,0.0,952.434844783
0,951,0.0,953.434844783
0,950,0.0,951.434844783
0,950,0.0,949.704391348
0,951,0.0,949.493073944
0,952,0.0,950.645151761
0,951,0.0,952.051606232
0,952,0.0,951.051606232
0,952,0.0,951.736124363
0,954,0.0,951.736124363
0,952,0.0,953.736124363
0,951,0.0,951.736124363
0,951,0.0,950.736124363
0,948,0.0,950.515287054
0,946,0.025,947.660700938
0,948,0.0,945.660700938
0,951,0.0,947.660700938
0,952,0.0,950.660700938
0,950,0.0,952.662490656
0,949,0.0,950.662490656
0,947,0.0,948.863743459
0,947,0.0,946.863743459
0,947,0.0,946.863743459
0,946,0.0,946.863743459
0,947,0.0,945.863743459
0,945,0.0,946.863743459
0,942,0.025,944.603674569
0,945,0.025,939.494137274
0,946,0.0,943.99057543
0,945,0.0,945.863743459
0,944,0.0,945.022572198
0,944,0.0,944.022572198
0,945,0.0,943.863743459
0,944,0.0,944.863743459
0,945,0.0,943.863743459
0,944,0.0,944.863743459
0,944,0.0,943.863743459
0,941,0.0,943.863743459
0,941,0.0,938.494137274
0,945,0.0,938.494137274
0,945,0.0,943.394438236
0,947,0.0,944.863743459
0,945,0.0,946.863743459
0,943,0.0,943.394438236
0,941,0.0,941.394438236
0,944,0.0,939.276106765
0,947,0.0,943.863743459
0,945,0.0,946.863743459
0,944,0.0,944.693274736
0,945,0.0,943.693274736
0,946,0.0,944.485292315
0,950,0.0,945.485292315
0,956,0.075,949.863743459
0,955,0.0,956.041233761
0,955,0.0,956.104620422
0,952,0.025,956.104620422
0,955,0.0,953.104620422
0,960,0.025,956.104620422
0,963,0.0,960.041233761
0,966,0.0,964.528863633
0,965,0.0,967.528863633
0,965,0.05,966.528863633
0,963,0.05,966.528863633
0,964,0.0,964.528863633
0,967,0.0,965.528863633
0,967,0.025,967.951415727
0,966,0.05,968.565991009
0,962,0.025,967.096193706
0,963,0.025,963.528863633
0,966,0.0,964.528863633
0,966,0.0,967.096193706
0,966,0.0,967.096193706
0,967,0.0,967.096193706
0,963,0.05,968.096193706
0,962,0.025,964.528863633
0,963,0.025,963.528863633
0,965,0.025,964.528863633
0,965,0.025,966.528863633
0,964,0.0,966.067335594
0,964,0.0,965.528863633
0,962,0.025,965.528863633
0,964,0.0,963.528863633
0,964,0.0,965.528863633
0,961,0.025,965.528863633
0,964,0.0,962.528863633
0,964,0.0,964.170204543
0,963,0.0,964.170204543
0,966,0.0,963.170204543
0,964,0.0,966.170204543
0,965,0.0,964.170204543
0,964,0.0,966.067335594
0,963,0.0,965.067335594
0,960,0.025,963.170204543
0,962,0.0,960.170204543
0,961,0.0,961.21914318
0,960,0.0,960.21914318
0,958,0.0,959.153400226
0,954,0.025,957.107380158
0,954,0.0,955.104620422
0,955,0.0,955.104620422
0,959,0.025,956.104620422
0,960,0.0,958.107380158
0,959,0.0,959.107380158
0,955,0.0,958.675166111
0,954,0.0,956.104620422
0,954,0.0,955.104620422
0,955,0.0,955.104620422
0,957,0.0,956.104620422
0,955,0.0,958.104620422
0,952,0.0,956.104620422
0,950,0.0,953.104620422
0,953,0.0,951.104620422
0,953,0.0,953.173234295
0,955,0.0,953.173234295
0,955,0.0,955.173234295
0,953,0.0,955.173234295
0,952,0.0,953.173234295
0,955,0.0,952.173234295
0,955,0.0,955.173234295
0,954,0.0,955.173234295
0,954,0.0,954.173234295
0,954,0.0,954.173234295
0,951,0.0,954.173234295
0,955,0.0,951.173234295
0,954,0.0,954.221264007
0,953,0.0,953.221264007
0,952,0.0,952.221264007
0,950,0.0,951.221264007
0,951,0.0,949.221264007
0,950,0.0,949.854884805
0,952,0.0,949.498419363
0,951,0.0,951.348893554
0,949,0.0,950.348893554
0,950,0.0,948.244225488
0,949,0.0,949.244225488
0,953,0.0,948.770957842
0,954,0.0,952.770957842
0,953,0.0,953.770957842
0,951,0.0,952.770957842
0,950,0.0,950.770957842
0,949,0.0,949.239670489
0,951,0.0,948.167769342
0,953,0.0,950.167769342
0,954,0.0,953.01743854
0,952,0.0,954.01743854
0,953,0.0,952.01743854
0,953,0.0,953.01743854
0,954,0.0,953.01743854
0,955,0.0,954.630945885
0,955,0.0,955.74166212
0,954,0.0,955.74166212
0,954,0.0,954.74166212
0,956,0.0,954.01743854
0,962,0.225,956.153414439
0,965,0.025,961.675166111
0,962,0.025,964.675166111
0,962,0.025,961.675166111
0,963,0.025,961.675166111
0,965,0.025,962.675166111
0,967,0.025,964.790536775
0,968,0.025,968.067335594
0,969,0.025,969.347134916
0,968,0.025,970.242994441
0,971,0.025,969.242994441
0,972,0.0,971.529795985
0,976,0.025,971.269231801
0,977,0.05,976.00284005
0,976,0.025,977.00284005
0,970,0.075,976.301988035
0,968,0.0,969.675166111
0,963,0.0,968.570096109
0,965,0.025,962.675166111
0,970,0.05,964.799067276
0,971,0.0,969.799067276
0,971,0.0,970.799067276
0,970,0.025,970.799067276
0,971,0.0,969.799067276
0,973,0.025,971.142912968
0,977,0.0,973.400039077
0,972,0.0,977.301988035
0,967,0.0,972.400039077
0,963,0.0,966.675166111
0,960,0.05,962.675166111
0,961,0.025,959.202783565
0,961,0.025,959.872616278
0,959,0.025,960.510831394
0,952,0.025,958.657581976
0,951,0.0,950.99057543
0,948,0.0,951.01743854
0,952,0.0,947.712206978
0,954,0.0,951.712206978
0,952,0.0,953.712206978
0,951,0.0,951.712206978
0,948,0.025,950.712206978
0,943,0.125,947.498544884
0,944,0.025,940.975381961
0,946,0.0,943.498544884
0,951,0.0,945.498544884
0,951,0.0,950.498544884
0,949,0.0,952.148981419
0,948,0.0,949.804286993
0,948,0.0,948.804286993
0,949,0.0,948.804286993
0,947,0.025,949.804286993
0,947,0.0,948.462219585
0,944,0.025,947.804286993
0,943,0.05,944.804286993
0,942,0.075,943.804286993
0,943,0.025,942.804286993
0,942,0.0,941.797937161
0,943,0.0,941.305243079
0,943,0.0,942.305243079
0,939,0.25,942.813670156
0,934,0.225,937.797937161
0,930,0.25,931.494137274
0,926,0.275,928.937554763
0,916,0.675,924.937554763
0,906,1.0,914.937554763
0,908,1.0,905.657581976
0,923,1.0,908.804286993
0,950,0.95,921.797937161
0,985,1.0,948.797937161
0,1019,1.0,986.560716905
0,1065,1.0,1027.6630009
0,1123,1.0,1073.6630009
0,1176,1.0,1121.79793716
0,1208,1.0,1174.79793716
0,1207,1.0,1207.48613966
0,1165,1.0,1205.79793716
0,1085,1.0,1166.79225254
0,999,1.0,1083.79793716
0,945,1.0,997.937554763
0,923,1.0,953.663000895
0,924,0.45,921.937554763
0,930,0.575,932.663000895
0,936,0.825,928.937554763
0,937,0.5,934.797937161
0,938,0.325,945.663000895
0,940,0.275,946.663000895
0,940,0.15,938.937554763
0,939,0.125,948.663000895
0,938,0.125,937.797937161
0,935,0.275,937.486139659
0,938,0.35,943.663000895
0,942,0.125,946.663000895
0,941,0.15,950.663000895
0,941,0.075,939.797937161
0,940,0.025,939.797937161
0,937,0.15,938.797937161
0,943,0.275,938.792252538
0,944,0.025,951.663000895
0,943,0.05,952.663000895
0,942,0.0,941.797937161
0,939,0.15,942.747262204
0,938,0.175,947.663000895
0,936,0.15,936.797937161
0,938,0.125,944.663000895
0,939,0.075,936.937554763
0,939,0.075,937.797937161
0,938,0.075,937.797937161
0,938,0.075,936.797937161
0,942,0.0,946.663000895
0,943,0.0,942.747262204
0,942,0.0,943.747262204
0,940,0.0,942.823083543
0,937,0.0,940.823083543
0,934,0.075,937.823083543
0,936,0.15,933.562113773
0,938,0.0,935.562113773
0,938,0.0,938.823083543
0,937,0.0,938.823083543
0,937,0.0,937.454913721
0,937,0.0,937.454913721
0,939,0.0,936.512991018
0,941,0.0,939.823083543
0,939,0.0,941.823083543
0,937,0.0,939.823083543
0,936,0.0,936.659093713
0,936,0.0,935.161365599
0,937,0.0,935.112955919
0,940,0.0,936.379069144
0,939,0.0,939.8653484
0,937,0.0,938.8653484
0,936,0.0,936.8653484
0,936,0.0,935.30574388
0,936,0.0,935.214020716
0,939,0.0,935.449814501
0,942,0.0,938.614870151
0,940,0.0,942.823083543
0,938,0.0,939.614870151
0,933,0.2,937.614870151
0,936,0.1,931.797937161
0,938,0.0,935.614870151
0,937,0.0,938.630409106
0,935,0.0,937.630409106
0,932,0.425,935.141286374
0,930,0.7,930.797937161
0,937,0.3,928.937554763
0,939,0.0,937.141286374
0,942,0.0,939.823083543
0,939,0.0,942.823083543
0,936,0.0,939.823083543
0,936,0.05,938.198900462
0,939,0.0,944.663000895
0,941,0.05,939.823083543
0,941,0.0,939.797937161
0,943,0.025,941.823083543
0,939,0.0,943.823083543
0,940,0.025,939.447461226
0,941,0.05,940.447461226
0,941,0.05,939.359347093
0,937,0.225,949.663000895
0,936,0.225,935.937554763
0,933,0.525,944.663000895
0,929,0.9,931.937554763
0,927,0.95,927.797937161
0,929,0.9,925.797937161
0,927,0.775,937.663000895
0,925,0.7,925.937554763
0,922,0.775,923.937554763
0,923,0.975,930.663000895
0,924,0.95,931.663000895
0,924,0.6,923.486139659
0,924,0.3,922.937554763
0,922,0.525,923.486139659
0,920,0.675,920.937554763
0,918,0.9,928.663000895
0,922,1.0,926.663000895
0,925,0.475,920.797937161
0,926,0.425,933.663000895
0,927,0.425,924.937554763
0,928,0.425,925.937554763
0,929,0.45,936.663000895
0,934,0.475,927.797937161
0,939,0.225,932.797937161
0,944,0.275,937.797937161
0,945,0.275,952.663000895
0,945,0.125,953.663000895
0,944,0.075,953.663000895
0,948,0.275,952.663000895
0,952,0.275,947.486139659
0,955,0.125,952.358556012
0,956,0.15,955.358556012
0,952,0.15,956.358556012
0,952,0.05,952.358556012
0,955,0.05,960.663000895
0,958,0.4,954.383581284
0,959,0.6,966.663000895
0,959,0.075,958.657581976
0,958,0.075,960.554576777
0,956,0.075,966.663000895
0,959,0.125,956.358556012
0,959,0.025,960.560716905
0,959,0.0,958.657581976
0,959,0.0,958.657581976
0,959,0.0,958.657581976
0,959,0.0,958.657581976
0,960,0.05,958.657581976
0,962,0.175,959.657581976
0,961,0.125,962.358556012
0,961,0.025,960.383581284
0,958,0.0,960.742215168
0,958,0.05,957.819550618
0,959,0.0,966.663000895
0,962,0.125,958.819550618
0,963,0.075,961.383581284
0,963,0.0,962.819550618
0,960,0.025,962.819550618
0,958,0.05,961.560716905
0,960,0.0,958.358556012
0,963,0.075,958.973685432
0,964,0.05,962.881579803
0,962,0.075,963.881579803
0,958,0.0,961.383581284
0,957,0.05,957.881579803
0,957,0.025,965.663000895
0,960,0.025,965.663000895
0,960,0.0,959.881579803
0,961,0.0,960.817105862
0,959,0.0,961.571974103
0,955,0.15,959.700381872
0,957,0.0,963.663000895
0,957,0.0,957.700381872
0,956,0.0,957.707390107
0,955,0.025,956.707390107
0,955,0.025,955.041742621
0,954,0.025,955.358556012
0,954,0.0,962.663000895
0,954,0.0,954.195173075
0,954,0.0,954.136621152
0,952,0.075,954.095634807
0,953,0.025,951.383581284
0,953,0.0,951.968506899
0,955,0.0,953.346861055
0,954,0.0,955.242802739
0,956,0.0,954.242802739
0,956,0.0,955.869961917
0,956,0.0,955.869961917
0,954,0.025,955.869961917
0,956,0.0,962.663000895
0,957,0.0,955.308973342
0,958,0.025,956.308973342
0,959,0.0,958.358556012
0,953,0.1,959.700381872
0,953,0.0,951.968506899
0,952,0.0,961.663000895
0,956,0.0,960.663000895
0,956,0.0,956.700381872
0,955,0.0,954.401396938
0,953,0.025,953.401396938
0,952,0.0,951.401396938
0,956,0.075,950.280977856
0,957,0.05,955.486139659
0,957,0.0,957.358556012
0,954,0.05,955.280977856
0,954,0.0,952.98456838
0,951,0.025,951.896684499
0,951,0.0,951.358556012
0,954,0.0,949.52767915
0,957,0.0,952.52767915
0,952,0.0,956.869375405
0,952,0.0,951.869375405
0,952,0.0,951.869375405
0,954,0.0,951.869375405
0,956,0.0,953.869375405
0,957,0.0,956.508562783
0,955,0.0,957.508562783
0,954,0.0,955.508562783
0,955,0.0,954.508562783
0,955,0.0,955.055993948
0,959,0.1,955.055993948
0,959,0.0,958.486139659
0,957,0.0,959.700381872
0,957,0.0,957.055993948
0,956,0.0,957.055993948
0,958,0.0,956.055993948
0,958,0.0,958.139393965
0,958,0.0,958.697575776
0,956,0.0,958.488303043
0,956,0.0,956.055993948
0,956,0.0,956.055993948
0,959,0.0,956.055993948
0,959,0.0,959.700381872
0,960,0.0,959.700381872
0,959,0.0,960.700381872
0,957,0.0,959.790267311
0,957,0.0,957.055993948
0,961,0.075,957.055993948
0,964,0.025,961.790267311
0,969,0.075,965.753187117
0,969,0.0,969.400039077
0,970,0.025,969.400039077
0,969,0.0,970.400039077
0,972,0.0,969.580027354
0,973,0.025,972.580027354
0,973,0.0,973.580027354
0,973,0.0,973.580027354
0,972,0.0,973.580027354
0,974,0.0,972.580027354
0,980,0.0,973.522442555
0,982,0.025,981.411391625
0,982,0.025,981.598640583
0,981,0.0,982.319048408
0,978,0.05,981.223333886
0,975,0.075,977.85633372
0,978,0.025,974.522442555
0,977,0.05,977.522442555
0,976,0.05,977.961581896
0,978,0.05,976.373107327
0,977,0.05,978.373107327
0,976,0.05,977.861175129
0,975,0.05,976.30282259
0,975,0.05,975.30282259
0,975,0.025,975.30282259
0,975,0.025,975.30282259
0,978,0.0,975.30282259
0,981,0.05,978.30282259
0,976,0.0,982.111975813
0,973,0.05,977.111975813
0,971,0.0,972.522442555
0,963,0.0,969.359347093
0,963,0.0,964.753187117
0,960,0.0,964.753187117
0,960,0.0,961.753187117
0,961,0.0,960.327230982
0,959,0.0,961.229061688
0,958,0.0,959.460343181
0,956,0.0,957.747487944
0,958,0.0,956.055993948
0,958,0.0,958.055993948
0,957,0.0,958.266269092
0,957,0.0,957.055993948
0,958,0.0,957.055993948
0,954,0.0,957.881330299
0,952,0.0,954.055993948
0,954,0.0,950.839195764
0,958,0.0,952.839195764
0,958,0.0,958.216931209
0,955,0.0,959.351851846
0,953,0.0,954.787437035
0,951,0.0,952.787437035
0,953,0.0,950.251205924
0,953,0.0,952.251205924
0,953,0.0,953.075844147
0,954,0.0,953.053090903
0,953,0.0,954.037163632
0,951,0.0,953.326014542
0,952,0.0,950.92821018
0,950,0.0,951.92821018
0,942,0.25,949.92821018
0,935,0.0,943.326317655
0,929,0.35,934.079256001
0,928,0.125,928.467949757
0,922,0.1,921.4377
0,916,0.125,915.4377
0,916,0.975,920.0
0,929,0.975,920.0
0,947,0.3,924.524473
0,970,0.825,946.92590056
0,997,1.0,968.359347093
0,1023,0.975,1003.7642134
0,1052,0.55,1069.0
0,1088,0.875,1052.35855601
0,1132,1.0,1088.35855601
0,1179,0.775,1188.64
0,1218,0.5,1201.1
0,1241,0.85,1262.0
0,1252,0.95,1285.0
0,1233,1.0,1217.1
0,1178,1.0,1228.524473
0,1090,1.0,1175.83353837
0,1005,0.75,1004.0
0,951,0.65,997.325716799
0,930,1.0,948.83353837
0,932,0.0,929.313666398
0,939,0.025,931.079256001
0,945,0.125,938.079256001
0,951,0.075,928.748130392
0,952,0.025,934.748130392
0,953,0.025,951.92821018
0,949,0.075,952.92821018
0,948,0.125,939.423691275
0,948,0.1,938.423691275
0,951,0.0,938.423691275
0,952,0.0,941.423691275
0,953,0.0,946.196583892
0,952,0.025,947.196583892
0,950,0.025,952.474822988
0,950,0.025,944.196583892
0,950,0.0,945.337608725
0,952,0.0,946.736326107
0,953,0.0,949.715428275
0,949,0.025,950.715428275
0,946,0.025,946.715428275
0,946,0.0,943.715428275
0,946,0.0,943.715428275
0,948,0.0,943.715428275
0,948,0.0,945.715428275
0,948,0.0,945.715428275
0,944,0.0,945.715428275
0,946,0.0,944.282232509
0,948,0.0,943.715428275
0,949,0.0,948.282232509
0,948,0.0,946.715428275
0,949,0.0,948.797562756
0,948,0.0,949.258293929
0,946,0.0,948.258293929
0,945,0.0,945.880805751
0,947,0.0,944.880805751
0,948,0.0,946.880805751
0,946,0.0,947.880805751
0,944,0.0,946.216564025
0,945,0.0,944.216564025
0,948,0.0,945.216564025
0,950,0.0,948.216564025
0,952,0.0,947.715428275
0,952,0.0,951.000799793
0,950,0.0,951.000799793
0,950,0.0,949.000799793
0,950,0.0,948.700559855
0,950,0.0,949.090391898
0,952,0.0,949.363274329
0,949,0.0,951.55429203
0,949,0.0,948.55429203
0,948,0.0,948.55429203
0,951,0.0,947.55429203
0,951,0.0,950.55429203
0,950,0.0,951.588004421
0,950,0.0,950.411603095
0,947,0.0,949.988122166
0,948,0.0,947.436116372
0,946,0.0,948.436116372
0,948,0.0,946.605281461
0,949,0.0,948.605281461
0,948,0.0,948.991685516
0,947,0.0,949.023697023
0,945,0.0,947.416587916
0,948,0.0,944.209895651
0,948,0.0,947.991685516
0,951,0.0,949.191611541
0,949,0.0,950.991685516
0,948,0.0,949.894179862
0,948,0.0,948.834128079
0,950,0.0,948.283889655
0,950,0.0,950.894179862
0,952,0.0,951.225925903
0,948,0.0,952.858148132
0,944,0.0,948.198722759
0,945,0.0,943.209895651
0,947,0.0,943.246926956
0,947,0.0,945.939105931
0,949,0.0,945.939105931
0,946,0.0,949.858148132
0,946,0.0,944.939105931
0,942,0.05,944.939105931
0,943,0.025,941.079256001
0,946,0.0,941.939105931
0,945,0.0,944.939105931
0,943,0.0,943.939105931
0,940,0.1,942.072848869
0,938,0.025,939.079256001
0,940,0.0,937.079256001
0,940,0.0,939.079256001
0,941,0.0,939.079256001
0,939,0.0,942.014914698
0,937,0.0,940.014914698
0,938,0.0,937.110440288
0,938,0.0,938.110440288
0,939,0.0,938.110440288
0,939,0.0,939.110440288
0,939,0.0,939.377308202
0,939,0.0,939.264115741
0,941,0.0,939.184881019
0,944,0.0,941.129416713
0,947,0.0,942.939105931
0,951,0.0,945.939105931
0,951,0.0,951.858148132
0,952,0.0,952.800703692
0,952,0.0,953.260492585
0,957,0.075,953.260492585
0,960,0.0,957.460343181
0,963,0.0,960.460343181
0,966,0.1,964.222240227
0,964,0.0,967.222240227
0,967,0.125,965.222240227
0,969,0.025,968.222240227
0,972,0.0,970.222240227
0,973,0.05,978.764213404
0,974,0.0,973.565709789
0,973,0.025,975.111975813
0,974,0.0,973.565709789
0,975,0.0,974.565709789
0,975,0.0,976.111975813
0,980,0.025,976.111975813
0,976,0.0,980.799433604
0,974,0.0,976.385102833
0,974,0.0,974.385102833
0,977,0.0,973.669571983
0,976,0.0,976.768700388
0,976,0.025,975.768700388
0,977,0.025,975.768700388
0,976,0.025,976.768700388
0,972,0.075,975.768700388
0,975,0.0,971.768700388
0,980,0.0,976.474868148
0,978,0.0,980.799433604
0,978,0.0,979.474868148
0,976,0.0,978.432407704
0,976,0.0,976.302685393
0,976,0.0,976.302685393
0,977,0.0,976.302685393
0,981,0.0,977.302685393
0,978,0.0,981.511879775
0,978,0.0,978.511879775
0,975,0.0,977.458315842
0,976,0.0,974.62082109
0,978,0.0,975.62082109
0,974,0.0,977.62082109
0,974,0.0,974.334574763
0,974,0.0,974.334574763
0,974,0.0,972.972164963
0,975,0.0,973.280515474
0,976,0.0,975.334574763
0,976,0.0,976.334574763
0,974,0.0,976.334574763
0,973,0.0,973.947452582
0,971,0.0,972.363216808
0,974,0.0,972.222240227
0,976,0.0,973.363216808
0,975,0.0,976.334574763
0,974,0.0,975.454251765
0,973,0.0,974.017976236
0,972,0.0,972.712583365
0,973,0.0,971.712583365
0,975,0.0,972.712583365
0,975,0.0,974.712583365
0,973,0.0,975.398808356
0,972,0.0,973.279165849
0,969,0.05,972.279165849
0,972,0.0,970.222240227
0,972,0.0,972.279165849
0,971,0.0,972.279165849
0,970,0.0,971.279165849
0,969,0.0,971.222240227
0,967,0.0,969.187058844
0,967,0.025,968.222240227
0,971,0.075,968.222240227
0,971,0.0,971.279165849
0,970,0.0,973.261287638
0,969,0.0,971.582901347
0,966,0.0,969.808030943
0,968,0.0,967.222240227
0,970,0.0,968.808030943
0,970,0.0,970.808030943
0,968,0.0,971.16562166
0,968,0.0,968.815935162
0,967,0.0,968.815935162
0,967,0.0,966.688181826
0,970,0.0,966.481727278
0,970,0.0,969.637209095
0,971,0.0,969.637209095
0,967,0.0,972.029808229
0,967,0.0,966.637209095
0,971,0.0,965.546046366
0,971,0.0,972.020865761
0,971,0.0,972.914606032
0,972,0.0,972.340224223
0,969,0.0,972.938156956
0,970,0.0,967.982232456
0,971,0.0,970.938156956
0,970,0.0,971.956709869
0,972,0.0,970.969696908
0,971,0.0,972.378787836
0,966,0.025,971.378787836
0,965,0.0,967.222240227
0,970,0.0,966.222240227
0,971,0.0,969.965151485
0,971,0.0,972.47560604
0,970,0.0,972.332924228
0,970,0.0,970.933046959
0,967,0.0,970.353132872
0,968,0.0,967.24719301
0,970,0.0,968.24719301
0,970,0.0,970.24719301
0,971,0.0,970.773035107
0,970,0.0,971.541124575
0,970,0.0,970.678787202
0,970,0.0,970.175151042
0,972,0.0,970.122605729
0,974,0.0,972.08582401
0,973,0.0,974.279165849
0,970,0.0,973.08582401
0,972,0.0,970.08582401
0,972,0.0,971.160076807
0,974,0.0,971.160076807
0,973,0.0,974.795416094
0,974,0.0,972.160076807
0,972,0.0,975.156791266
0,975,0.0,971.160076807
0,976,0.0,976.109753886
0,978,0.0,977.67682772
0,985,0.3,979.67682772
0,983,0.25,1019.0
0,981,0.075,983.834202334
0,981,0.1,981.834202334
0,985,0.175,981.631722466
0,985,0.1,985.442205726
0,987,0.0,985.442205726
0,987,0.0,987.442205726
0,987,0.0,987.442205726
0,988,0.0,987.518
0,993,0.2,988.3626
0,994,0.25,993.55382
0,994,0.15,994.55382
0,993,0.0,994.55382
0,989,0.0,945.19
0,990,0.0,989.55382
0,987,0.0,995.9215277
0,988,0.0,987.55382
0,989,0.0,987.487674
0,990,0.0,988.9413718
0,985,0.0,989.9413718
0,985,0.0,984.9413718
0,987,0.0,984.9413718
0,990,0.0,986.9413718
0,995,0.0,990.55896026
0,996,0.025,995.55896026
0,997,0.05,996.55896026
0,989,0.0,997.55896026
0,985,0.0,989.55896026
0,982,0.0,985.55896026
0,979,0.0,982.442205726
0,975,0.025,979.834202334
0,971,0.025,976.67682772
0,969,0.0,970.160076807
0,967,0.0,967.212053765
0,966,0.0,965.212053765
0,964,0.0,967.222240227
0,963,0.0,965.222240227
0,963,0.0,964.222240227
0,964,0.0,961.212053765
0,965,0.0,962.212053765
0,966,0.0,963.212053765
0,966,0.0,964.212053765
0,966,0.0,964.212053765
0,965,0.0,964.212053765
0,963,0.0,963.212053765
0,964,0.0,964.222240227
0,964,0.0,965.222240227
0,966,0.0,965.222240227
0,966,0.0,964.819905733
0,962,0.0,964.819905733
0,964,0.0,963.222240227
0,962,0.0,965.222240227
0,962,0.0,963.222240227
0,964,0.0,963.222240227
0,962,0.0,965.222240227
0,961,0.0,963.222240227
0,957,0.225,962.222240227
0,956,0.0,957.555568159
0,955,0.0,956.555568159
0,948,0.075,956.260492585
0,940,0.075,946.939105931
0,933,0.1,940.129416713
0,929,0.05,932.313666398
0,926,0.05,926.83353837
0,923,0.025,921.64063735
0,932,0.05,918.524473
0,955,0.625,927.64063735
0,983,0.8,956.260492585
0,1016,0.975,983.55896026
0,1046,0.6,1062.0
0,1086,0.575,992.4
0,1136,0.625,1130.0
0,1193,0.55,1192.64
0,1235,0.85,1243.0
0,1258,0.9,1292.0
0,1266,0.975,1298.0
0,1248,1.0,1261.64063735
0,1182,1.0,1190.0
0,1084,0.5,1094.0
0,994,0.9,998.0
0,946,0.725,992.212053765
0,943,1.0,943.583476859
0,955,0.075,940.690591699
0,963,0.1,955.632376092
0,964,0.0,963.555568159
0,962,0.025,964.555568159
0,958,0.05,962.555568159
0,958,0.05,959.260492585
0,959,0.075,957.019579628
0,959,0.0,958.31370574
0,957,0.025,958.31370574
0,954,0.075,956.31370574
0,952,0.0,955.260492585
0,953,0.025,953.260492585
0,954,0.05,954.260492585
0,956,0.1,955.260492585
0,958,0.075,956.285904999
0,955,0.075,956.919594018
0,954,0.1,955.285904999
0,954,0.05,954.285904999
0,958,0.025,953.9001335
0,958,0.05,957.843715813
0,956,0.1,959.090601069
0,955,0.1,955.93009345
0,953,0.075,954.93009345
0,954,0.05,952.93009345
0,954,0.05,953.351065415
0,954,0.05,953.84574579
0,953,0.05,953.892022053
0,951,0.025,952.924415437
0,952,0.05,950.647090806
0,953,0.05,951.647090806
0,953,0.05,952.647090806
0,954,0.0,953.052963564
0,952,0.0,954.037074495
0,951,0.0,952.325952146
0,951,0.0,951.282344809
0,951,0.0,950.897641367
0,952,0.0,950.928348957
0,953,0.0,951.94984427
0,951,0.0,953.325952146
0,948,0.0,950.94984427
0,948,0.0,947.364890989
0,949,0.0,947.364890989
0,952,0.0,948.364890989
0,953,0.0,952.528166503
0,950,0.0,953.528166503
0,949,0.0,949.364890989
0,948,0.0,947.655423692
0,952,0.0,946.655423692
0,953,0.0,952.669716552
0,953,0.0,953.669716552
0,954,0.0,953.768801586
0,953,0.0,954.53816111
0,950,0.05,953.676712777
0,951,0.0,948.655423692
0,953,0.0,949.158796584
0,952,0.0,953.173698944
0,951,0.0,952.721589261
0,949,0.0,950.011157609
0,950,0.0,948.007810326
0,949,0.0,949.007810326
0,951,0.0,948.605467228
0,951,0.0,950.605467228
0,950,0.0,951.32382706
0,949,0.0,950.226678942
0,947,0.0,948.858675259
0,950,0.0,946.858675259
0,952,0.0,949.858675259
0,952,0.0,952.721589261
0,951,0.0,952.801072682
0,949,0.0,951.801072682
0,946,0.0,949.260750877
0,949,0.0,946.260750877
0,951,0.0,949.260750877
0,949,0.0,951.260750877
0,949,0.0,949.782525614
0,948,0.0,949.782525614
0,947,0.0,948.782525614
0,947,0.0,947.782525614
0,950,0.0,947.782525614
0,950,0.0,950.782525614
0,949,0.0,951.44776793
0,946,0.0,950.013437551
0,944,0.0,947.013437551
0,945,0.0,945.013437551
0,950,0.0,946.013437551
0,952,0.0,951.013437551
0,949,0.0,954.209406286
0,944,0.0,951.209406286
0,943,0.0,946.209406286
0,945,0.0,940.690591699
0,946,0.0,941.219927411
0,947,0.0,948.209406286
0,945,0.0,949.209406286
0,943,0.0,947.209406286
0,943,0.0,940.690591699
0,946,0.0,940.690591699
0,949,0.0,944.657764431
0,950,0.0,951.209406286
0,951,0.0,952.209406286
0,949,0.0,952.8465844
0,953,0.0,950.59260908
0,952,0.0,954.59260908
0,955,0.0,953.59260908
0,960,0.025,956.705112483
0,961,0.0,960.763420748
0,961,0.0,962.888897711
0,961,0.0,962.622228398
0,964,0.0,962.135559878
0,967,0.0,964.794891915
0,971,0.0,965.212053765
0,969,0.0,969.212053765
0,969,0.0,968.948437636
0,969,0.0,968.948437636
0,969,0.0,968.948437636
0,972,0.0,968.948437636
0,973,0.0,971.948437636
0,974,0.0,972.948437636
0,970,0.0,973.973779404
0,970,0.0,969.948437636
0,969,0.0,968.763906345
0,974,0.025,968.134734441
0,973,0.0,974.281645583
0,972,0.0,972.134734441
0,971,0.025,971.134734441
0,969,0.0,970.134734441
0,970,0.025,968.094314109
0,971,0.025,969.094314109
0,972,0.05,970.666019876
0,970,0.025,972.066213913
0,968,0.0,970.066213913
0,964,0.025,967.446349739
0,967,0.025,964.794891915
0,970,0.05,966.446349739
0,971,0.0,969.446349739
0,971,0.0,971.512444818
0,967,0.0,971.658711372
0,965,0.0,967.461097961
0,967,0.0,965.461097961
0,971,0.05,967.461097961
0,969,0.0,971.461097961
0,967,0.05,970.522768572
0,967,0.0,968.522768572
0,965,0.0,968.522768572
0,967,0.0,964.586346263
0,971,0.05,968.522768572
0,969,0.0,972.522768572
0,966,0.0,971.265938001
0,965,0.025,968.265938001
0,966,0.0,967.265938001
0,964,0.025,968.265938001
0,967,0.0,966.265938001
0,969,0.025,969.265938001
0,967,0.0,971.265938001
0,964,0.025,969.265938001
0,964,0.025,964.182116768
0,967,0.0,964.182116768
0,966,0.0,969.265938001
0,969,0.025,967.027481738
0,967,0.0,971.265938001
0,963,0.0,969.265938001
0,964,0.0,963.794891915
0,964,0.0,964.794891915
0,966,0.0,964.794891915
0,964,0.0,965.37898209
0,964,0.0,964.794891915
0,959,0.075,962.965287463
0,959,0.0,960.705112483
0,957,0.0,959.763420748
0,960,0.0,958.705112483
0,962,0.0,959.934394524
0,961,0.0,963.45642434
0,957,0.05,962.45642434
0,958,0.075,958.705112483
0,959,0.075,959.705112483
0,960,0.1,960.705112483
0,960,0.1,961.705112483
0,959,0.05,959.427853317
0,958,0.05,960.705112483
0,953,0.175,959.705112483
0,959,0.025,954.705112483
0,961,0.0,958.299497322
0,960,0.025,961.562553549
0,960,0.05,960.993787484
0,959,0.025,960.395651239
0,957,0.025,958.693578738
0,961,0.05,956.693578738
0,963,0.05,961.276955867
0,963,0.0,964.393869107
0,962,0.0,964.393869107
0,959,0.0,963.393869107
0,959,0.0,957.909648125
0,962,0.0,960.393869107
0,962,0.0,963.393869107
0,962,0.0,963.393869107
0,963,0.0,963.393869107
0,961,0.0,964.393869107
0,960,0.0,962.393869107
0,962,0.025,960.375708375
0,962,0.0,961.962995862
0,963,0.0,961.962995862
0,962,0.0,962.962995862
0,960,0.0,961.962995862
0,960,0.0,959.962995862
0,962,0.0,959.374097104
0,965,0.0,961.561867973
0,964,0.025,965.119237216
0,963,0.0,963.561867973
0,963,0.0,962.561867973
0,959,0.0,962.561867973
0,964,0.0,957.909648125
0,964,0.0,963.561867973
0,965,0.025,963.561867973
0,967,0.0,964.561867973
0,966,0.05,969.265938001
0,967,0.025,965.561867973
0,970,0.075,969.265938001
0,977,0.4,972.265938001
0,979,0.1,978.697151908
0,980,0.125,980.697151908
0,980,0.025,979.409544008
0,981,0.025,979.409544008
0,981,0.0,980.409544008
0,980,0.0,980.886680806
0,983,0.075,979.920676564
0,983,0.025,983.55896026
0,984,0.025,982.920676564
0,983,0.0,984.55896026
0,985,0.0,982.920676564
0,987,0.0,985.55896026
0,985,0.025,987.55896026
0,986,0.0,985.991272182
0,987,0.0,985.327883359
0,987,0.0,987.991272182
0,988,0.0,987.993890527
0,989,0.0,988.695723369
0,987,0.0,989.787006358
0,985,0.0,987.787006358
0,982,0.0,984.950904451
0,979,0.05,981.950904451
0,981,0.025,978.044473595
0,981,0.0,980.950904451
0,984,0.0,980.931131516
0,982,0.0,983.950904451
0,978,0.0,981.951792061
0,974,0.1,977.366254443
0,981,0.25,976.4861566
0,987,0.0,980.366254443
0,990,0.025,986.950904451
0,985,0.0,991.765633116
0,980,0.0,986.765633116
0,973,0.0,981.65637811
0,974,0.05,975.4861566
0,972,0.05,976.4861566
0,972,0.0,974.4861566
0,967,0.05,974.4861566
0,966,0.0,969.4861566
0,963,0.05,965.561867973
0,961,0.0,962.561867973
0,962,0.0,960.561867973
0,961,0.0,961.093307581
0,959,0.0,960.093307581
0,960,0.0,958.065315307
0,956,0.025,959.065315307
0,956,0.075,955.693578738
0,958,0.05,955.693578738
0,960,0.05,957.693578738
0,959,0.0,959.645720715
0,958,0.025,959.3520045
0,955,0.075,957.693578738
0,955,0.075,954.693578738
0,959,0.05,954.693578738
0,959,0.0,959.3520045
0,959,0.0,959.3520045
0,956,0.025,959.3520045
0,955,0.05,955.693578738
0,956,0.0,954.693578738
0,958,0.0,955.693578738
0,960,0.0,957.585727581
0,958,0.0,960.3520045
0,956,0.025,958.84640315
0,952,0.05,955.693578738
0,946,0.05,953.59260908
0,940,0.025,944.626200102
0,935,0.05,937.690591699
0,929,0.1,933.755479201
0,919,0.025,926.583476859
0,913,0.3,914.524473
0,924,0.225,908.524473
0,948,0.1,921.583476859
0,984,0.75,949.59260908
0,1021,0.275,985.765633116
0,1063,0.55,1067.0
0,1118,0.875,1117.5
0,1177,0.475,1174.64
0,1223,0.475,1199.1
0,1250,0.925,1265.0
0,1264,1.0,1184.0
0,1249,0.575,1246.0
0,1196,0.475,1183.0
0,1117,0.875,1191.14844615
0,1034,0.975,1118.59260908
0,968,1.0,1040.14914987
0,937,1.0,974.149149874
0,928,0.05,935.755479201
0,932,0.05,925.583476859
0,945,0.025,927.148446145
0,953,0.0,943.172304571
0,954,0.0,954.59260908
0,952,0.0,956.185505116
0,949,0.0,953.59260908
0,948,0.0,950.59260908
0,951,0.0,949.59260908
0,952,0.025,952.59260908
0,953,0.0,953.829853582
0,950,0.0,954.829853582
0,949,0.0,952.014826356
0,948,0.0,949.510378449
0,949,0.0,948.510378449
0,950,0.0,949.510378449
0,949,0.0,950.510378449
0,948,0.0,949.657264914
0,947,0.0,948.657264914
0,946,0.0,947.657264914
0,946,0.0,944.4206132
0,947,0.0,944.59442924
0,947,0.0,947.657264914
0,945,0.0,947.657264914
0,944,0.025,944.727889229
0,943,0.025,943.727889229
0,945,0.0,939.583414189
0,947,0.0,944.727889229
0,948,0.0,947.657264914
0,949,0.0,948.657264914
0,948,0.0,949.657264914
0,946,0.0,948.657264914
0,947,0.0,946.657264914
0,949,0.0,947.657264914
0,949,0.0,949.657264914
0,950,0.0,949.657264914
0,950,0.0,950.657264914
0,948,0.0,950.76008544
0,951,0.0,948.532059808
0,953,0.0,951.532059808
0,953,0.0,954.580897507
0,953,0.0,954.706628255
0,953,0.0,954.194639778
0,951,0.0,953.836247845
0,950,0.0,952.272441866
0,952,0.0,950.290709306
0,951,0.0,952.585373491
0,949,0.0,950.903496514
0,948,0.0,948.63244756
0,947,0.0,947.63244756
0,946,0.0,946.63244756
0,949,0.0,945.63244756
0,947,0.0,948.63244756
0,949,0.0,946.63244756
0,946,0.0,948.63244756
0,946,0.0,945.63244756
0,945,0.0,944.449467908
0,948,0.0,943.914627536
0,950,0.0,947.63244756
0,948,0.0,949.63244756
0,946,0.0,948.342713292
0,946,0.0,944.914627536
0,946,0.0,944.640239275
0,948,0.0,945.048167492
0,948,0.025,948.342713292
0,948,0.025,948.342713292
0,946,0.025,948.334953632
0,945,0.0,946.234467543
0,946,0.0,943.933602071
0,951,0.0,944.933602071
0,950,0.0,951.342713292
0,950,0.0,951.739899304
0,947,0.0,950.917929513
0,947,0.0,946.55352145
0,948,0.0,945.787465015
0,951,0.0,948.642550659
0,951,0.0,951.642550659
0,949,0.0,952.349785461
0,946,0.0,949.944849823
0,944,0.05,945.15122551
0,945,0.0,944.944849823
0,945,0.0,943.505857857
0,945,0.0,943.505857857
0,943,0.0,943.505857857
0,942,0.025,941.505857857
0,941,0.0,938.583414189
0,941,0.0,937.583414189
0,944,0.0,937.583414189
0,944,0.0,942.505857857
0,944,0.0,942.505857857
0,942,0.0,942.505857857
0,941,0.0,941.892285971
0,945,0.0,937.583414189
0,945,0.0,943.505857857
0,947,0.0,943.505857857
0,946,0.0,947.944849823
0,947,0.0,945.5541005
0,948,0.0,946.38787035
0,953,0.0,948.944849823
0,956,0.0,953.585373491
0,960,0.0,957.909761444
0,960,0.0,960.84640315
0,959,0.0,961.792482205
0,961,0.0,960.254737544
0,963,0.0,962.254737544
0,967,0.0,964.478316281
0,970,0.0,969.4861566
0,968,0.0,972.4861566
0,967,0.0,970.64030962
0,966,0.0,969.64030962
0,968,0.0,958.847280097
0,969,0.0,970.64030962
0,972,0.025,971.64030962
0,972,0.0,974.64030962
0,969,0.0,974.64030962
0,966,0.025,964.593096068
0,968,0.0,961.593096068
0,969,0.0,970.64030962
0,972,0.0,971.64030962
0,971,0.0,974.64030962
0,969,0.0,973.64030962
0,968,0.025,970.548216734
0,970,0.0,965.515167248
0,972,0.05,971.548216734
0,972,0.05,973.683751714
0,967,0.025,973.683751714
0,966,0.0,964.960617073
0,966,0.025,967.683751714
0,967,0.05,963.072431951
0,968,0.05,964.072431951
0,971,0.1,966.250702366
0,969,0.025,970.075491656
0,968,0.0,968.075491656
0,967,0.05,970.0786262
0,966,0.0,966.052844159
0,969,0.05,965.036990912
0,969,0.025,968.036990912
0,965,0.05,968.036990912
0,966,0.075,964.036990912
0,965,0.075,965.036990912
0,966,0.0,964.036990912
0,967,0.0,965.036990912
0,967,0.075,966.036990912
0,965,0.075,966.625893638
0,965,0.025,964.738125547
0,964,0.05,964.738125547
0,964,0.05,963.738125547
0,967,0.05,963.738125547
0,967,0.05,966.738125547
0,967,0.025,967.716687883
0,965,0.075,967.501681518
0,964,0.025,965.624889096
0,964,0.025,964.351177063
0,967,0.05,964.351177063
0,965,0.05,967.351177063
0,965,0.075,966.145823944
0,964,0.075,966.145823944
0,964,0.025,965.145823944
0,965,0.1,963.555494214
0,964,0.075,964.68884595
0,965,0.025,963.68884595
0,965,0.075,964.482192165
0,963,0.125,964.482192165
0,960,0.325,962.482192165
0,960,0.125,960.944849823
0,961,0.0,960.134821396
0,961,0.075,961.094374977
0,960,0.125,961.366062484
0,960,0.0,960.256243739
0,957,0.0,959.879370617
0,958,0.075,956.915559432
0,958,0.075,957.915559432
0,961,0.075,957.915559432
0,961,0.0,960.915559432
0,961,0.0,961.840891602
0,958,0.0,961.588624122
0,963,0.125,958.412036885
0,962,0.0,963.412036885
0,966,0.125,962.412036885
0,963,0.0,967.145823944
0,963,0.0,963.412036885
0,961,0.0,962.678391912
0,961,0.0,961.412036885
0,962,0.0,960.68842582
0,964,0.0,961.774874339
0,963,0.0,963.774874339
0,961,0.0,963.442412037
0,960,0.0,960.781898074
0,961,0.0,959.247328652
0,964,0.0,960.173130056
0,963,0.0,964.009688426
0,964,0.0,963.906781898
0,963,0.0,964.334747329
0,960,0.0,963.53432313
0,957,0.0,959.721191039
0,958,0.025,955.904833728
0,962,0.05,956.904833728
0,962,0.0,962.074026191
0,962,0.0,962.074026191
0,959,0.025,962.074026191
0,961,0.0,957.904833728
0,965,0.05,959.904833728
0,965,0.05,965.074026191
0,966,0.0,965.074026191
0,963,0.0,966.074026191
0,964,0.0,963.074026191
0,965,0.0,963.151818334
0,966,0.025,964.706272834
0,968,0.15,965.706272834
0,966,0.1,969.145823944
0,963,0.0,965.706272834
0,962,0.0,962.706272834
0,970,0.675,961.833383609
0,973,0.975,970.944849823
0,975,0.725,973.944849823
0,975,0.55,975.239760525
0,976,0.425,975.944849823
0,975,0.5,976.562886173
0,977,0.45,975.562886173
0,978,0.475,977.094020321
0,982,0.575,978.094020321
0,983,0.2,1016.0
0,983,0.15,984.765633116
0,985,0.225,984.765633116
0,986,0.25,986.765633116
0,986,0.2,987.765633116
0,985,0.075,987.765633116
0,982,0.075,992.476677356
0,980,0.175,986.933674149
0,977,0.325,980.751625274
0,980,0.3,978.05259198
0,985,0.125,980.751625274
0,984,0.1,989.933674149
0,982,0.075,988.953571904
0,979,0.275,985.167500333
0,978,0.275,978.926137692
0,984,0.175,977.926137692
0,989,0.325,987.167500333
0,990,0.25,993.017250233
0,987,0.2,994.017250233
0,979,0.35,991.017250233
0,975,0.625,983.017250233
0,976,0.975,975.134406978
0,976,0.225,975.58577007
0,974,0.625,975.58577007
0,971,0.825,974.624889096
0,966,0.675,971.624889096
0,960,0.125,964.894390984
0,959,0.15,959.833383609
0,959,0.1,957.083368526
0,959,0.075,957.083368526
0,957,0.05,957.083368526
0,956,0.125,955.083368526
0,959,0.225,957.909761444
0,959,0.025,957.083368526
0,959,0.0,957.083368526
0,960,0.0,957.083368526
0,958,0.075,958.083368526
0,954,0.25,956.958357969
0,952,0.175,954.624889096
0,954,0.075,952.944849823
0,957,0.35,954.136833011
0,958,0.125,955.958357969
0,956,0.175,956.958357969
0,956,0.2,956.944849823
0,953,0.025,956.695783108
0,955,0.075,953.695783108
0,956,0.05,954.587048175
0,957,0.025,955.587048175
0,955,0.025,955.958357969
0,951,0.05,954.587048175
0,952,0.05,950.587048175
0,952,0.05,951.587048175
0,951,0.05,951.587048175
0,946,0.2,950.461394876
0,939,0.5,945.322976413
0,931,0.65,939.054197349
0,923,0.925,926.148446145
0,917,0.975,920.583476859
0,911,0.925,912.908433801
0,911,1.0,911.624889096
0,927,0.975,914.272488004
0,956,1.0,922.148446145
0,987,1.0,955.322976413
0,1025,0.975,986.99823786
0,1076,0.925,1025.6248891
0,1133,1.0,1077.40207676
0,1184,1.0,1132.99823786
0,1211,0.975,1183.32297641
0,1212,1.0,1211.6248891
0,1179,1.0,1207.9084338
0,1111,1.0,1178.32297641
0,1028,1.0,1111.6248891
0,960,1.0,1028.6248891
0,928,1.0,960.265981968
0,924,0.6,931.909295381
0,933,0.55,919.908433801
0,941,0.275,928.148446145
0,947,0.15,941.988346841
0,946,0.075,946.99823786
0,943,0.125,946.624889096
0,942,0.05,943.180927671
0,943,0.1,942.180927671
0,943,0.075,943.180927671
0,945,0.05,943.180927671
0,949,0.175,945.180927671
0,946,0.075,948.99823786
0,947,0.075,945.732054088
0,950,0.15,946.22664937
0,950,0.125,949.322976413
0,950,0.125,950.426083489
0,948,0.1,950.298258442
0,948,0.1,948.20878091
0,947,0.1,947.758654559
0,949,0.1,947.20878091
0,947,0.1,948.531058191
0,944,0.1,946.531058191
0,945,0.075,943.071740734
0,944,0.05,944.071740734
0,944,0.1,943.071740734
0,947,0.1,945.204289952
0,950,0.15,946.071740734
0,952,0.2,950.20878091
0,949,0.175,953.046146637
0,946,0.1,949.250218514
0,946,0.1,945.886195657
0,946,0.075,945.27515296
0,945,0.15,945.492607072
0,946,0.125,944.64482495
0,944,0.1,945.64482495
0,941,0.275,944.051377465
0,940,0.25,939.879966187
0,939,0.15,935.508389933
0,944,0.1,937.879966187
0,945,0.025,944.051377465
0,944,0.025,945.051377465
0,944,0.075,944.051377465
0,942,0.1,944.051377465
0,942,0.1,942.140828402
0,946,0.1,942.140828402
0,947,0.075,946.051377465
0,944,0.1,948.235964226
0,944,0.125,945.165174958
0,943,0.075,945.165174958
0,944,0.025,944.165174958
0,945,0.05,943.307304142
0,949,0.3,946.165174958
0,946,0.125,950.165174958
0,944,0.025,947.165174958
0,941,0.175,943.815112899
0,942,0.225,940.27057903
0,944,0.025,941.27057903
0,946,0.025,943.27057903
0,943,0.1,945.915622471
0,942,0.075,943.089405321
0,940,0.175,941.162583724
0,942,0.075,939.162583724
0,944,0.025,941.162583724
0,945,0.0,943.162583724
0,943,0.075,945.540935729
0,943,0.075,943.013808607
0,943,0.025,942.409666025
0,946,0.125,942.586766217
0,944,0.025,946.540935729
0,946,0.15,943.710736352
0,944,0.05,947.278655011
0,941,0.225,943.197515447
0,940,0.35,939.838260813
0,940,0.15,938.838260813
0,943,0.125,938.838260813
0,944,0.0,941.838260813
0,942,0.05,944.086782569
0,941,0.025,942.360747798
0,938,0.325,941.360747798
0,938,0.35,938.360747798
0,938,0.15,938.360747798
0,938,0.025,938.360747798
0,936,0.1,938.360747798
0,935,0.325,935.704312784
0,934,0.225,934.704312784
0,937,0.025,933.704312784
0,938,0.05,936.704312784
0,939,0.025,933.496129366
0,937,0.0,939.093018948
0,933,0.25,937.093018948
0,934,0.15,929.247290556
0,934,0.05,930.247290556
0,936,0.025,933.637554298
0,936,0.0,935.746288009
0,936,0.0,933.973103389
0,935,0.0,934.581172372
0,935,0.0,934.006820661
0,939,0.05,934.006820661
0,940,0.05,938.006820661
0,942,0.1,939.006820661
0,943,0.075,942.360747798
0,943,0.05,943.360747798
0,943,0.0,943.552523459
0,949,0.35,943.386766421
0,954,0.275,950.495058507
0,957,0.175,953.886195657
0,956,0.0,935.870850578
0,958,0.05,957.210933723
0,955,0.0,936.870850578
0,957,0.1,956.45082747
0,960,0.025,958.45082747
0,961,0.05,938.870850578
0,960,0.075,947.109595405
0,959,0.05,950.576716783
0,957,0.05,952.103701748
0,958,0.075,950.103701748
0,961,0.05,951.103701748
0,962,0.0,954.103701748
0,960,0.0,958.072591224
0,960,0.05,956.072591224
0,963,0.1,956.650813857
0,962,0.025,961.894390984
0,964,0.0,959.6555697
0,966,0.05,964.126073688
0,963,0.0,966.688251582
0,962,0.0,963.688251582
0,960,0.025,959.6555697
0,964,0.025,957.6555697
0,961,0.0,963.581776107
0,961,0.0,958.75889879
0,960,0.0,958.531229153
0,960,0.0,958.271860407
0,956,0.05,958.490302285
0,959,0.0,954.943211599
0,962,0.0,957.943211599
0,962,0.0,960.943211599
0,963,0.0,960.943211599
0,960,0.025,961.943211599
0,958,0.0,958.943211599
0,958,0.0,956.36024812
0,961,0.0,956.36024812
0,961,0.0,959.36024812
0,959,0.0,960.752173684
0,959,0.0,958.826521579
0,953,0.1,958.826521579
0,956,0.075,954.046146637
0,956,0.0,955.826521579
0,958,0.0,955.826521579
0,956,0.0,957.826521579
0,953,0.05,955.826521579
0,952,0.1,952.047653606
0,954,0.0,953.046146637
0,954,0.025,952.433357524
0,952,0.05,953.503350267
0,951,0.025,951.652345187
0,953,0.0,950.652345187
0,951,0.0,952.652345187
0,949,0.0,951.432302646
0,951,0.025,948.702611852
0,952,0.0,950.702611852
0,952,0.0,952.391828296
0,950,0.025,952.391828296
0,950,0.0,950.391828296
0,953,0.0,949.674279808
0,953,0.025,952.771995865
0,955,0.05,952.771995865
0,952,0.0,954.826521579
0,949,0.0,951.771995865
0,951,0.0,948.771995865
0,950,0.025,950.771995865
0,953,0.0,950.440397106
0,954,0.025,953.008277974
0,951,0.0,955.463328079
0,953,0.0,951.008277974
0,953,0.0,952.105794582
0,955,0.0,952.105794582
0,956,0.0,956.068921531
0,956,0.0,955.826521579
0,954,0.0,955.826521579
0,952,0.0,955.068921531
0,946,0.05,951.105794582
0,946,0.0,946.270736495
0,950,0.225,946.270736495
0,953,0.0,949.105794582
0,950,0.175,953.148245072
0,949,0.025,950.574056207
0,949,0.0,948.501839345
0,949,0.025,948.501839345
0,952,0.0,948.501839345
0,952,0.1,953.00377155
0,954,0.05,953.00377155
0,952,0.0,955.00377155
0,951,0.125,953.302640085
0,950,0.175,952.302640085
0,951,0.0,949.351287542
0,952,0.125,950.245901279
0,953,0.075,951.772130895
0,954,0.025,954.302640085
0,950,0.0,955.21184806
0,951,0.125,949.772130895
0,954,0.05,952.148293642
0,954,0.0,955.148293642
0,952,0.0,955.703805549
0,950,0.0,951.348344139
0,948,0.0,949.348344139
0,953,0.0,946.943840897
0,956,0.0,954.192663884
0,959,0.0,955.826521579
0,962,0.0,958.826521579
0,965,0.0,961.826521579
0,961,0.0,965.935070293
0,960,0.0,960.826521579
0,967,0.225,958.678565105
0,964,0.0,968.402076761
0,964,0.0,962.774995574
0,964,0.0,963.754549205
0,964,0.0,963.828184443
0,965,0.0,963.87972911
0,969,0.075,964.915810377
0,974,0.325,968.915810377
0,976,0.15,972.606069957
0,974,0.35,976.52424897
0,970,0.3,974.52424897
0,969,0.1,973.081453732
0,971,0.075,972.081453732
0,974,0.225,971.604779743
0,974,0.0,973.766974279
0,970,0.0,974.736881995
0,964,0.1,970.515817397
0,966,0.0,963.915810377
0,971,0.2,964.141067264
0,974,0.0,971.515817397
0,970,0.0,974.515817397
0,967,0.0,971.261072178
0,964,0.0,965.141067264
0,967,0.0,962.141067264
0,970,0.05,964.798747085
0,972,0.075,971.261072178
0,968,0.0,972.537370884
0,962,0.025,969.779912329
0,958,0.0,960.774995574
0,959,0.0,956.774995574
0,955,0.0,957.774995574
0,953,0.0,957.334864719
0,948,0.35,955.334864719
0,947,0.0,946.943840897
0,945,0.025,946.472578669
0,946,0.0,945.270736495
0,946,0.0,945.330805068
0,946,0.0,945.831563548
0,946,0.0,945.882094483
0,944,0.05,945.917466138
0,941,0.15,944.270736495
0,942,0.05,940.006820661
0,943,0.0,941.589515546
0,944,0.025,942.589515546
0,943,0.0,944.012660882
0,943,0.0,943.308862618
0,944,0.0,942.916203832
0,946,0.0,943.941342683
0,948,0.025,946.258939878
0,949,0.025,948.559558408
0,948,0.025,949.559558408
0,948,0.075,948.559558408
0,946,0.025,948.559558408
0,946,0.0,946.258939878
0,947,0.0,945.791690885
0,946,0.0,946.85418362
0,943,0.05,946.197928534
0,934,0.425,943.258939878
0,926,0.25,933.006820661
0,925,0.275,921.908433801
0,922,0.375,920.908433801
0,915,0.25,917.908433801
0,905,0.775,910.604
0,901,1.0,907.0
0,918,0.975,903.0
0,949,1.0,917.8
0,987,0.5,947.943840897
0,1027,0.325,1021.0
0,1077,0.55,1078.0
0,1127,0.95,1134.0
0,1175,0.875,1184.348
0,1212,0.675,1221.0
0,1227,0.975,1213.0
0,1214,1.0,1226.4063129
0,1163,1.0,1179.67
0,1085,0.975,1083.0
0,1006,0.45,1035.6231
0,953,0.25,1004.9438409
0,931,0.425,948.148446145
0,922,0.175,927.235903661
0,918,0.025,918.235903661
0,921,0.4,917.8
0,929,0.45,915.665132563
0,937,0.45,923.665132563
0,940,0.05,936.006820661
0,940,0.0,939.281257915
0,940,0.0,939.281257915
0,939,0.0,941.019645368
0,937,0.0,939.713751757
0,938,0.0,937.19962623
0,940,0.0,938.19962623
0,940,0.0,940.19962623
0,939,0.0,940.739738361
0,938,0.0,939.517816853
0,936,0.0,938.062471797
0,938,0.0,936.062471797
0,942,0.0,938.062471797
0,944,0.0,941.281257915
0,940,0.05,943.281257915
0,938,0.0,940.062471797
0,939,0.0,936.843730258
0,940,0.0,937.843730258
0,940,0.0,939.490611181
0,941,0.0,939.943427826
0,940,0.0,940.960399478
0,940,0.0,939.960399478
0,940,0.0,939.672279635
0,940,0.0,939.770595744
0,940,0.0,939.839417021
0,941,0.0,939.887591915
0,941,0.0,940.92131434
0,941,0.0,940.92131434
0,939,0.0,940.92131434
0,937,0.0,938.92131434
0,939,0.0,936.344920038
0,939,0.0,938.344920038
0,939,0.0,939.141444027
0,938,0.0,939.099010819
0,936,0.0,938.069307573
0,939,0.0,936.069307573
0,941,0.0,939.069307573
0,941,0.0,941.948515301
0,941,0.0,941.948515301
0,940,0.0,941.948515301
0,937,0.0,940.948515301
0,939,0.0,937.363960711
0,940,0.0,939.363960711
0,941,0.0,940.854772498
0,940,0.0,941.898340748
0,940,0.0,940.898340748
0,939,0.0,940.328838524
0,940,0.0,939.230186967
0,938,0.0,939.861130877
0,938,0.0,938.202791614
0,940,0.0,938.202791614
0,939,0.0,940.202791614
0,939,0.0,939.74195413
0,942,0.15,939.219367891
0,944,0.025,942.09688054
0,942,0.0,944.09688054
0,939,0.0,942.153557523
0,935,0.1,939.153557523
0,936,0.1,934.207490266
0,936,0.0,935.207490266
0,940,0.0,935.207490266
0,939,0.0,939.207490266
0,939,0.0,939.645243187
0,939,0.0,939.151670231
0,937,0.0,939.106169161
0,938,0.0,937.074318413
0,940,0.0,938.074318413
0,939,0.0,940.074318413
0,938,0.0,939.652022889
0,935,0.025,938.156416022
0,934,0.1,935.156416022
0,936,0.0,934.156416022
0,937,0.0,936.156416022
0,936,0.0,937.156416022
0,934,0.075,936.156416022
0,930,0.275,933.851283796
0,930,0.225,924.665132563
0,929,0.15,924.665132563
0,929,0.0,927.671917028
0,929,0.0,927.770341919
0,927,0.05,928.139239344
0,926,0.0,926.397467541
0,925,0.0,925.397467541
0,924,0.05,924.397467541
0,928,0.0,923.397467541
0,927,0.0,927.397467541
0,928,0.0,926.397467541
0,926,0.0,927.397467541
0,924,0.0,925.397467541
0,929,0.0,923.397467541
0,932,0.075,928.397467541
0,935,0.0,933.078227278
0,938,0.0,935.156416022
0,939,0.0,938.156416022
0,941,0.0,939.156416022
0,944,0.0,941.409491216
0,946,0.025,944.667816378
0,948,0.0,945.838549974
0,949,0.0,948.486984982
0,951,0.0,949.486984982
0,951,0.1,935.824083712
0,954,0.05,950.860688628
0,956,0.0,938.824083712
0,957,0.0,946.276858599
0,957,0.0,955.774995574
0,961,0.0,955.774995574
0,962,0.0,959.774995574
0,963,0.0,962.342496901
0,964,0.0,963.342496901
0,966,0.0,962.759122959
0,966,0.025,965.431386072
0,966,0.0,965.431386072
0,965,0.0,965.431386072
0,967,0.0,964.431386072
0,967,0.0,966.431386072
0,968,0.025,966.431386072
0,969,0.05,968.442509929
0,967,0.0,969.60975695
0,965,0.0,966.431386072
0,966,0.0,964.431386072
0,970,0.0,965.431386072
0,973,0.05,969.826829865
0,971,0.025,974.261072178
0,969,0.0,970.826829865
0,970,0.0,968.826829865
0,970,0.025,969.826829865
0,973,0.0,969.826829865
0,973,0.05,973.456622749
0,969,0.025,973.456622749
0,970,0.0,968.826829865
0,969,0.0,970.456622749
0,968,0.0,969.619635924
0,971,0.025,967.826829865
0,971,0.025,971.619635924
0,970,0.0,972.333745147
0,969,0.0,970.933621603
0,967,0.0,969.353535122
0,969,0.0,966.431386072
0,969,0.0,969.353535122
0,969,0.0,969.353535122
0,969,0.0,969.353535122
0,967,0.0,969.353535122
0,966,0.0,966.431386072
0,965,0.0,965.431386072
0,967,0.0,964.431386072
0,967,0.0,965.773602644
0,967,0.0,966.741521851
0,966,0.0,966.819065295
0,962,0.15,965.431386072
0,967,0.05,962.342496901
0,971,0.0,966.873345707
0,970,0.025,971.353535122
0,971,0.0,971.447474585
0,967,0.0,971.71323221
0,966,0.0,968.411341995
0,967,0.0,965.787939396
0,971,0.025,966.787939396
0,969,0.0,971.799262547
0,968,0.0,970.759483783
0,967,0.0,968.151557577
0,968,0.0,966.806090304
0,966,0.0,969.759483783
0,964,0.0,965.994984249
0,967,0.0,964.342496901
0,967,0.0,966.994984249
0,967,0.0,967.896488974
0,964,0.0,967.627542282
0,967,0.0,963.00197025
0,967,0.0,967.439279597
0,968,0.0,968.207495718
0,968,0.0,968.845247003
0,966,0.0,968.891672902
0,967,0.0,966.624171031
0,969,0.0,967.624171031
0,971,0.05,969.736919722
0,973,0.0,972.759483783
0,969,0.0,974.831638648
0,970,0.0,969.736919722
0,967,0.0,971.831638648
0,970,0.0,967.736919722
0,970,0.0,971.582147054
0,971,0.0,972.007502938
0,971,0.0,972.405252056
0,968,0.0,972.283676439
0,967,0.0,967.615843805
0,967,0.0,965.831090664
0,968,0.0,965.881763465
0,970,0.0,967.217234425
0,968,0.0,970.898573508
0,968,0.0,967.752064098
0,967,0.0,967.226444868
0,970,0.0,966.458511408
0,971,0.0,971.229001455
0,973,0.0,972.760301019
0,972,0.0,974.532210713
0,970,0.0,973.532210713
0,970,0.0,971.532210713
0,970,0.0,970.472547499
0,971,0.0,970.330783249
0,972,0.0,971.231548275
0,971,0.0,972.462083792
0,970,0.0,971.462083792
0,971,0.0,970.023458655
0,975,0.075,970.716421058
0,978,0.05,975.101494741
0,981,0.05,980.082750524
0,982,0.025,985.017250233
0,983,0.025,982.848296384
0,983,0.0,983.893807469
0,985,0.0,983.893807469
0,985,0.0,989.017250233
0,988,0.025,988.412075163
0,990,0.025,990.388452614
0,992,0.125,992.388452614
0,990,0.0,994.388452614
0,992,0.0,1003.55222851
0,996,0.3,994.388452614
0,995,0.225,996.603859076
0,991,0.0,995.603859076
0,989,0.0,1004.55222851
0,986,0.0,991.388452614
0,984,0.0,988.388452614
0,988,0.05,986.388452614
0,989,0.025,989.07191683
0,987,0.0,990.07191683
0,987,0.0,988.07191683
0,984,0.0,993.88059197
0,983,0.0,985.07191683
0,990,0.025,982.850341781
0,994,0.0,994.816414379
0,997,0.1,998.816414379
0,990,0.0,973.795319
0,981,0.05,994.816414379
0,979,0.0,980.850341781
0,977,0.1,976.925665228
0,977,0.2,979.082750524
0,974,0.325,976.827027334
0,971,0.075,974.101494741
0,967,0.0,971.101494741
0,968,0.0,966.320957985
0,970,0.0,966.32467059
0,971,0.0,969.171046319
0,970,0.0,971.019732423
0,968,0.0,970.313812696
0,964,0.0,967.127269413
0,967,0.0,964.342496901
0,968,0.0,965.789088589
0,968,0.0,968.052362012
0,966,0.0,968.336653409
0,963,0.0,966.235657386
0,966,0.0,963.342496901
0,967,0.0,966.235657386
0,967,0.0,967.235657386
0,968,0.0,967.46496017
0,968,0.0,968.325472119
0,968,0.0,968.527830483
0,964,0.0,968.369481338
0,964,0.0,964.258636937
0,966,0.0,964.258636937
0,967,0.0,966.258636937
0,969,0.0,967.258636937
0,966,0.0,969.481045856
0,963,0.0,966.481045856
0,965,0.0,963.342496901
0,963,0.0,965.481045856
0,958,0.0,960.646499798
0,949,0.1,958.342496901
0,940,0.15,948.90248204
0,934,0.075,940.409491216
0,933,0.025,933.851283796
0,928,0.05,930.586643851
0,933,0.0,929.078227278
0,953,0.7,930.586643851
0,984,0.625,952.90248204
0,1022,0.05,984.416628525
0,1063,0.1,1072.7
0,1116,0.3,1118.0
0,1176,0.125,1173.348
0,1227,0.35,1222.0
0,1257,0.925,1221.94
0,1264,0.85,1265.0
0,1241,0.875,1246.9
0,1178,0.975,1241.18441903
0,1084,0.025,1080.0
0,996,0.125,1000.8
0,947,0.225,995.919668887
0,939,0.425,941.665132563
0,951,0.4,936.586643851
0,963,0.175,950.90248204
0,967,0.0,960.752549859
0,965,0.0,967.481045856
0,962,0.0,966.536732099
0,960,0.0,962.342496901
0,962,0.0,960.342496901
0,963,0.0,961.639747831
0,962,0.0,965.026784901
0,961,0.0,961.639747831
0,960,0.0,960.639747831
0,958,0.0,959.447823482
0,958,0.0,957.313476437
0,962,0.0,957.313476437
0,961,0.0,961.313476437
0,960,0.0,960.313476437
0,959,0.0,959.219433506
0,959,0.0,958.153603454
0,957,0.0,958.153603454
0,959,0.0,956.153603454
0,959,0.0,958.153603454
0,960,0.0,958.153603454
0,956,0.025,959.153603454
0,956,0.0,955.707522418
0,956,0.0,955.193801019
0,958,0.0,955.193801019
0,960,0.025,957.707522418
0,960,0.0,959.707522418
0,960,0.0,960.395265693
0,956,0.0,960.276685985
0,957,0.0,956.193680189
0,960,0.0,957.193680189
0,960,0.0,960.193680189
0,962,0.0,961.035576133
0,957,0.0,962.724903293
0,956,0.0,957.724903293
0,958,0.0,955.193801019
0,960,0.0,958.724903293
0,960,0.0,960.724903293
0,958,0.0,961.107432305
0,956,0.0,958.775202613
0,955,0.05,955.193801019
0,956,0.025,954.193801019
0,957,0.0,955.193801019
0,958,0.0,957.775202613
0,958,0.0,958.775202613
0,956,0.0,958.775202613
0,954,0.1,955.193801019
0,955,0.0,957.531737428
0,955,0.0,953.835660713
0,960,0.0,953.835660713
0,959,0.0,960.775202613
0,960,0.0,961.042641829
0,958,0.0,962.042641829
0,960,0.0,959.729849281
0,960,0.0,961.729849281
0,963,0.1,961.810894496
0,961,0.0,964.536732099
0,960,0.0,962.267626147
0,958,0.0,960.287338303
0,959,0.0,957.901136812
0,961,0.0,958.901136812
0,963,0.0,960.901136812
0,963,0.0,963.530795769
0,962,0.025,963.530795769
0,959,0.0,962.530795769
0,958,0.0,959.530795769
0,958,0.0,958.530795769
0,959,0.0,958.530795769
0,959,0.0,959.530795769
0,956,0.025,959.530795769
0,954,0.0,954.835660713
0,956,0.0,957.531737428
0,957,0.025,956.530795769
0,957,0.0,957.530795769
0,954,0.0,957.530795769
0,952,0.025,952.584962499
0,950,0.0,955.531737428
0,952,0.025,953.531737428
0,954,0.0,953.872216199
0,956,0.0,955.872216199
0,954,0.05,956.530795769
0,953,0.0,953.276631625
0,953,0.15,951.893642137
0,953,0.125,951.925549496
0,953,0.125,952.247884647
0,952,0.25,952.473519253
0,954,0.025,953.872216199
0,952,0.025,953.631463477
0,951,0.025,952.342024434
0,951,0.0,952.872216199
0,955,0.0,952.01055134
0,957,0.025,955.342024434
0,955,0.05,957.530795769
0,955,0.025,955.342024434
0,956,0.025,955.342024434
0,955,0.025,956.342024434
0,960,0.025,955.342024434
0,966,0.05,960.530795769
0,967,0.0,967.536732099
0,964,0.0,968.536732099
0,969,0.025,965.375712469
0,972,0.025,970.375712469
0,976,0.15,971.919668887
0,978,0.0,975.919668887
0,979,0.075,978.557925367
0,977,0.0,979.515243394
0,977,0.0,977.515243394
0,982,0.05,976.760670376
0,984,0.0,991.195239247
0,983,0.0,993.195239247
0,984,0.0,990.036667473
0,984,0.0,991.036667473
0,980,0.025,989.225667231
0,982,0.0,979.832469263
0,985,0.025,985.657967062
0,982,0.0,988.657967062
0,982,0.0,985.460576943
0,981,0.0,985.460576943
0,980,0.0,984.460576943
0,980,0.0,979.476316555
0,981,0.025,979.476316555
0,981,0.0,980.476316555
0,980,0.0,980.933421588
0,978,0.0,979.953395112
0,979,0.0,977.953395112
0,980,0.0,978.953395112
0,980,0.0,979.953395112
0,981,0.0,979.953395112
0,982,0.0,980.953395112
0,979,0.0,982.267376578
0,979,0.0,979.487163605
0,980,0.025,979.487163605
0,981,0.025,980.487163605
0,983,0.0,981.487163605
0,982,0.0,983.641014523
0,981,0.0,982.641014523
0,979,0.0,981.148710166
0,980,0.0,978.804097116
0,979,0.0,979.804097116
0,980,0.0,978.804097116
0,979,0.0,979.804097116
0,977,0.0,978.804097116
0,976,0.025,976.282728484
0,976,0.05,974.897909939
0,975,0.1,975.919668887
0,975,0.05,974.919668887
0,974,0.025,974.919668887
0,974,0.025,973.919668887
0,973,0.025,973.919668887
0,971,0.0,972.919668887
0,974,0.05,970.919668887
0,974,0.0,973.343768221
0,975,0.0,973.343768221
0,972,0.0,975.542318362
0,971,0.0,971.343768221
0,972,0.0,970.343768221
0,972,0.0,971.240637755
0,975,0.0,971.240637755
0,975,0.0,975.679622853
0,974,0.0,976.375735997
0,972,0.0,974.963015198
0,973,0.0,971.240637755
0,976,0.05,972.240637755
0,978,0.025,976.374110639
0,975,0.05,977.804097116
0,974,0.0,975.374110639
0,972,0.0,973.361877447
0,973,0.0,971.240637755
0,976,0.025,972.240637755
0,976,0.0,975.253314213
0,975,0.0,975.253314213
0,972,0.05,974.253314213
0,970,0.0,971.240637755
0,974,0.0,969.240637755
0,975,0.025,972.868446428
0,977,0.0,975.624123964
0,977,0.0,977.736886775
0,977,0.0,977.736886775
0,974,0.025,977.736886775
0,977,0.0,974.736886775
0,977,0.0,976.615820743
0,977,0.0,976.615820743
0,974,0.0,976.615820743
0,974,0.0,973.615820743
0,970,0.0,972.83107452
0,973,0.0,968.868446428
0,975,0.0,971.0079125
0,976,0.0,974.181752164
0,976,0.0,976.027226515
0,975,0.0,976.027226515
0,974,0.0,975.027226515
0,977,0.0,973.71905856
0,979,0.0,976.503340992
0,977,0.0,978.804097116
0,978,0.0,976.503340992
0,975,0.0,977.503340992
0,975,0.0,974.503340992
0,976,0.0,973.752338695
0,978,0.0,975.126637086
0,979,0.0,977.126637086
0,980,0.0,978.804097116
0,981,0.0,979.804097116
0,983,0.0,980.804097116
0,988,0.0,983.162867982
0,993,0.025,991.460576943
0,995,0.05,992.665890947
0,995,0.05,994.665890947
0,995,0.025,979.3567233
0,991,0.0,984.04970631
0,996,0.0,983.334794417
0,999,0.15,988.334794417
0,1001,0.325,991.334794417
0,1003,0.3,993.334794417
0,999,0.0,995.334794417
0,998,0.0,991.334794417
0,998,0.0,990.334794417
0,999,0.0,967.803
0,997,0.0,977.8621
0,993,0.0,982.50347
0,993,0.0,985.334794417
0,992,0.0,978.50347
0,992,0.0,984.334794417
0,993,0.0,984.334794417
0,994,0.0,992.276400096
0,998,0.0,979.50347
0,999,0.0,983.50347
0,998,0.0,990.052429
0,993,0.0,992.0367003
0,990,0.0,988.52569021
0,988,0.0,994.871490066
0,986,0.0,991.460576943
0,982,0.0,989.460576943
0,975,0.0,982.162867982
0,977,0.0,974.126637086
0,978,0.0,974.28864596
0,976,0.0,975.28864596
0,973,0.0,973.28864596
0,972,0.0,971.0079125
0,972,0.0,970.0079125
0,971,0.0,970.0079125
0,973,0.0,969.0079125
0,974,0.0,971.30553875
0,973,0.0,971.28864596
0,970,0.0,971.402052172
0,969,0.0,968.30553875
0,969,0.0,970.375712469
0,970,0.0,970.375712469
0,973,0.025,967.913877125
0,971,0.0,971.402052172
0,971,0.0,969.839713987
0,969,0.0,969.587799791
0,969,0.0,968.011459854
0,970,0.0,970.375712469
0,973,0.0,969.011459854
0,972,0.0,972.608021898
0,971,0.0,971.608021898
0,966,0.0,970.608021898
0,964,0.0,967.375712469
0,962,0.025,964.115371738
0,952,0.15,963.871557038
0,945,0.425,952.342024434
0,941,0.025,946.367471465
0,932,0.225,936.910650696
0,926,0.0,933.078227278
0,931,0.0,927.078227278
0,947,0.5,932.078227278
0,977,0.8,932.640889487
0,1014,0.975,975.402052172
0,1049,0.475,1055.7
0,1096,0.975,1074.8
0,1157,1.0,1154.1436
0,1212,0.925,1215.1436
0,1250,0.925,1237.8
0,1268,0.75,1261.9
0,1255,0.925,1250.9
0,1204,0.95,1266.9
0,1118,0.675,1124.6
0,1027,0.65,1035.0
0,964,1.0,1028.87155704
0,947,0.85,963.851283796
0,955,0.125,941.748622641
0,968,0.65,955.342024434
0,975,0.05,969.375712469
0,977,0.0,973.402052172
0,975,0.0,977.981436521
0,975,0.0,975.981436521
0,970,0.0,975.087005564
0,971,0.0,969.425615328
0,973,0.0,969.09793073
0,973,0.0,971.968551511
0,971,0.0,971.968551511
0,966,0.0,969.968551511
0,964,0.0,970.862998729
0,965,0.0,944.736532152
0,963,0.0,969.862998729
0,962,0.0,964.871557038
0,963,0.0,963.871557038
0,963,0.0,952.540900754
0,960,0.0,955.978630528
0,962,0.0,961.871557038
0,964,0.0,962.410089927
0,963,0.0,959.08504137
0,962,0.0,960.159528959
0,962,0.0,962.410089927
0,959,0.0,959.711670271
0,959,0.0,959.410089927
0,962,0.0,959.410089927
0,964,0.0,959.711670271
0,963,0.0,961.711670271
0,963,0.0,961.99816919
0,960,0.0,961.998718433
0,962,0.0,960.410089927
0,964,0.0,961.387062949
0,966,0.025,963.299102903
0,965,0.0,970.862998729
0,964,0.0,965.109372032
0,964,0.0,964.109372032
0,963,0.0,963.776560422
0,965,0.0,962.843592296
0,967,0.0,964.590514607
0,965,0.0,971.862998729
0,963,0.0,964.590514607
0,962,0.0,962.590514607
0,964,0.0,961.113360225
0,963,0.0,963.113360225
0,963,0.0,962.979352157
0,963,0.0,962.68554651
0,962,0.0,962.779882557
0,960,0.0,961.84591779
0,960,0.0,959.387062949
0,963,0.025,958.970944064
0,964,0.0,962.84591779
0,964,0.0,964.792142453
0,962,0.0,964.854499717
0,962,0.0,962.598149802
0,960,0.0,962.598149802
0,964,0.05,959.279660845
0,965,0.0,964.598149802
0,965,0.0,966.618704861
0,964,0.0,966.618704861
0,963,0.0,965.618704861
0,963,0.0,963.833093403
0,965,0.0,963.283165382
0,968,0.025,965.198215767
0,966,0.0,972.00409911
0,962,0.0,966.198215767
0,963,0.0,962.198215767
0,963,0.0,963.198215767
0,966,0.0,963.438751037
0,966,0.0,969.702869377
0,965,0.0,966.307125726
0,963,0.0,965.307125726
0,960,0.0,963.307125726
0,962,0.0,958.895762591
0,962,0.0,961.614988008
0,961,0.0,961.614988008
0,961,0.0,959.327033814
0,960,0.0,959.52892367
0,958,0.0,958.970246569
0,958,0.0,956.979172598
0,961,0.0,956.979172598
0,962,0.0,959.979172598
0,960,0.025,961.614988008
0,958,0.0,960.185420819
0,957,0.0,957.529794573
0,959,0.0,956.529794573
0,962,0.05,958.529794573
0,961,0.0,961.614988008
0,960,0.0,960.529794573
0,960,0.0,959.370856201
0,958,0.0,959.259599341
0,958,0.0,957.481719539
0,960,0.0,957.481719539
0,961,0.0,959.481719539
0,962,0.025,961.237203677
0,962,0.0,962.466042574
0,962,0.0,962.466042574
0,963,0.0,962.466042574
0,968,0.05,962.614988008
0,970,0.0,966.677986058
0,969,0.0,968.677986058
0,970,0.0,968.67459024
0,972,0.0,969.67459024
0,975,0.025,972.072213168
0,978,0.025,975.060903895
0,979,0.025,978.942632727
0,979,0.0,977.914007587
0,981,0.0,977.914007587
0,979,0.0,979.914007587
0,982,0.0,978.839805311
0,983,0.0,981.839805311
0,985,0.0,983.787863718
0,986,0.0,985.787863718
0,984,0.0,989.02240386
0,986,0.0,984.787863718
0,986,0.0,987.515682702
0,987,0.0,987.515682702
0,991,0.05,988.515682702
0,991,0.0,993.267030132
0,989,0.0,993.267030132
0,986,0.0,991.267030132
0,985,0.0,987.515682702
0,986,0.025,985.787863718
0,985,0.0,986.760977891
0,984,0.0,985.787863718
0,984,0.0,984.787863718
0,983,0.0,983.862879167
0,985,0.0,983.787863718
0,986,0.0,984.904015417
0,986,0.0,986.532810792
0,984,0.0,986.532810792
0,983,0.025,984.532810792
0,982,0.025,982.772967554
0,984,0.0,981.772967554
0,985,0.0,983.772967554
0,986,0.0,985.441077288
0,982,0.0,986.608754102
0,983,0.0,982.251504602
0,982,0.025,981.976053222
0,981,0.05,980.976053222
0,985,0.0,979.983237255
0,984,0.0,985.608754102
0,985,0.0,985.626127871
0,982,0.025,985.83828951
0,981,0.025,982.886802657
0,982,0.0,979.391786255
0,984,0.025,980.574250379
0,985,0.0,984.886802657
0,983,0.0,986.22076186
0,980,0.1,984.154533302
0,978,0.05,979.301975265
0,979,0.025,984.136618577
0,976,0.0,978.301975265
0,977,0.0,976.942632727
0,976,0.0,977.942632727
0,976,0.0,976.942632727
0,975,0.0,976.942632727
0,976,0.0,975.942632727
0,976,0.0,976.359842909
0,977,0.0,976.359842909
0,975,0.0,977.359842909
0,974,0.0,975.359842909
0,975,0.0,973.651890036
0,977,0.0,974.456323025
0,977,0.0,976.919426118
0,981,0.0,976.919426118
0,979,0.0,980.301975265
0,976,0.0,980.557221484
0,976,0.0,975.919426118
0,977,0.0,975.919426118
0,978,0.0,978.557221484
0,979,0.0,978.711382685
0,976,0.0,979.711382685
0,976,0.0,975.919426118
0,974,0.025,975.919426118
0,973,0.05,974.072213168
0,976,0.0,973.072213168
0,975,0.0,975.343598282
0,976,0.0,974.343598282
0,975,0.0,975.240518798
0,975,0.0,974.240518798
0,974,0.0,974.168363158
0,975,0.0,973.417854211
0,978,0.0,974.292497948
0,976,0.0,979.273038527
0,974,0.0,975.804748563
0,973,0.0,973.804748563
0,978,0.05,972.263323994
0,979,0.0,977.263323994
0,981,0.0,979.711382685
0,979,0.0,981.711382685
0,977,0.0,980.09796788
0,978,0.0,976.263323994
0,978,0.0,979.327652215
0,978,0.0,979.22935655
0,980,0.0,978.860549585
0,980,0.0,981.09796788
0,979,0.0,981.09796788
0,976,0.0,979.60238471
0,977,0.0,975.263323994
0,978,0.0,976.263323994
0,978,0.0,978.721669297
0,977,0.0,978.805168508
0,977,0.0,977.563617955
0,975,0.075,976.263323994
0,977,0.975,974.263323994
0,980,1.0,975.884326796
0,983,0.425,981.09796788
0,983,0.225,984.154533302
0,986,0.3,984.09796788
0,986,0.2,987.154533302
0,989,0.25,987.154533302
0,990,0.4,990.154533302
0,991,0.125,992.267030132
0,993,0.175,992.154533302
0,991,0.15,988.52569021
0,993,0.05,993.267030132
0,996,0.225,992.847863663
0,998,0.2,991.52569021
0,1001,0.425,993.52569021
0,1002,0.55,998.467983147
0,1002,0.725,999.467983147
0,1000,0.275,999.467983147
0,1000,0.075,997.467983147
0,1000,0.075,997.467983147
0,999,0.025,997.467983147
0,999,0.0,996.467983147
0,997,0.075,996.927588203
0,995,0.125,995.549311742
0,996,0.075,993.549311742
0,995,0.05,994.549311742
0,996,0.05,993.549311742
0,994,0.1,994.549311742
0,993,0.075,992.549311742
0,990,0.15,991.549311742
0,988,0.15,991.154533302
0,995,0.1,989.154533302
0,1002,0.4,993.549311742
0,1003,0.425,1000.54931174
0,995,0.25,1001.54931174
0,987,0.35,993.549311742
0,984,0.025,988.154533302
0,981,0.075,985.154533302
0,980,0.05,981.646320959
0,978,0.15,980.646320959
0,974,0.2,978.646320959
0,971,0.2,974.072213168
0,972,0.1,971.072213168
0,971,0.1,971.150549218
0,973,0.1,970.150549218
0,974,0.025,971.019028757
0,973,0.05,972.019028757
0,970,0.05,971.91332013
0,971,0.025,969.105384452
0,972,0.075,969.473769117
0,972,0.0,971.231638382
0,971,0.0,971.231638382
0,968,0.0,970.231638382
0,969,0.0,967.162146867
0,969,0.0,968.162146867
0,971,0.0,968.162146867
0,971,0.0,970.162146867
0,969,0.0,971.013502807
0,967,0.0,969.009451965
0,964,0.0,968.964405995
0,966,0.025,964.030491606
0,966,0.025,965.121344124
0,968,0.0,965.121344124
0,967,0.0,968.009451965
0,967,0.0,968.142558937
0,964,0.0,967.499791256
0,962,0.025,963.121344124
0,960,0.075,960.484940887
0,952,0.5,960.466042574
0,944,0.25,952.707385938
0,938,0.075,939.910650696
0,928,0.55,933.910650696
0,921,0.725,929.078227278
0,920,0.325,915.665132563
0,938,0.875,921.078227278
0,963,0.9,933.910650696
0,995,1.0,961.484940887
0,1026,1.0,992.677657228
0,1068,0.55,1076.7
0,1120,0.825,1122.5
0,1177,0.225,1178.1436
0,1220,0.325,1201.76
0,1244,0.95,1227.858
0,1243,1.0,1241.44259669
0,1208,1.0,1208.67
0,1138,1.0,1140.0
0,1051,1.0,1055.0
0,979,1.0,1050.7262298
0,943,0.9,979.707385938
0,939,0.65,941.557230025
0,949,0.2,934.910650696
0,960,0.275,949.707385938
0,962,0.0,959.726229802
0,965,0.05,968.439458621
0,963,0.025,971.439458621
0,959,0.075,969.439458621
0,962,0.0,962.108360861
0,963,0.0,965.907621035
0,964,0.0,966.907621035
0,963,0.0,967.035334724
0,961,0.1,965.424734307
0,961,0.05,964.108360861
0,962,0.05,962.575852603
0,961,0.025,963.397314015
0,963,0.0,962.103096822
0,963,0.025,964.397314015
0,958,0.075,964.57811981
0,957,0.075,958.472167775
0,959,0.0,957.472167775
0,960,0.0,959.472167775
0,962,0.05,960.472167775
0,961,0.0,963.104683867
0,960,0.0,961.630517443
0,958,0.075,960.14136221
0,958,0.0,957.798953547
0,959,0.05,957.798953547
0,962,0.075,958.798953547
0,959,0.025,963.104683867
0,958,0.025,958.798953547
0,955,0.225,957.798953547
0,958,0.075,955.707385938
0,959,0.05,957.798953547
0,960,0.025,958.798953547
0,960,0.025,959.798953547
0,959,0.075,960.159267483
0,958,0.05,959.111487238
0,956,0.05,958.111487238
0,957,0.05,956.111487238
0,962,0.125,957.111487238
0,960,0.0,962.111487238
0,962,0.025,960.111487238
0,957,0.025,963.104683867
0,959,0.075,956.478041067
0,961,0.05,958.478041067
0,961,0.05,960.478041067
0,958,0.075,961.234628747
0,958,0.05,958.164240123
0,959,0.05,958.164240123
0,957,0.05,959.164240123
0,959,0.05,957.164240123
0,959,0.075,959.164240123
0,960,0.025,957.473674024
0,956,0.225,960.164240123
0,955,0.1,956.414968086
0,957,0.05,955.342024434
0,959,0.05,957.414968086
0,958,0.075,959.414968086
0,959,0.1,958.414968086
0,956,0.05,959.414968086
0,955,0.075,956.342024434
0,954,0.825,954.372100272
0,957,1.0,942.190061018
0,955,0.5,945.190061018
0,957,0.35,955.707385938
0,957,0.1,957.414968086
0,955,0.25,957.414968086
0,958,0.15,955.645630393
0,959,0.15,958.414968086
0,962,0.15,959.414968086
0,962,0.05,963.104683867
0,960,0.125,962.414968086
0,956,0.125,960.414968086
0,958,0.025,955.69047766
0,959,0.025,957.69047766
0,958,0.05,958.69047766
0,959,0.025,957.69047766
0,956,0.1,958.69047766
0,955,0.075,956.782451225
0,955,0.025,954.939417104
0,955,0.0,954.939417104
0,954,0.05,955.782451225
0,954,0.025,953.939417104
0,954,0.025,953.657591973
0,951,0.225,953.760314381
0,950,0.1,951.707385938
0,953,0.05,949.595170156
0,953,0.125,952.832220067
0,954,0.15,953.782554047
0,954,0.075,954.547787833
0,953,0.075,954.683451483
0,954,0.125,953.478416038
0,955,0.075,954.034891227
0,955,0.05,955.324423859
0,956,0.05,955.324423859
0,954,0.025,956.324423859
0,949,0.475,954.324423859
0,950,0.025,948.416619109
0,953,0.0,949.627096701
0,956,0.0,952.627096701
0,955,0.0,955.69047766
0,954,0.025,955.638967691
0,954,0.0,954.638967691
0,956,0.0,954.147277384
0,960,0.025,956.103094168
0,962,0.05,959.69047766
0,962,0.0,963.104683867
0,963,0.0,962.983334362
0,963,0.0,964.104683867
0,967,0.15,964.073278707
0,970,0.025,967.751295095
0,971,0.0,970.009451965
0,970,0.0,971.906616375
0,966,0.05,970.934631463
0,968,0.0,966.751295095
0,970,0.0,968.354242024
0,972,0.025,970.354242024
0,971,0.0,972.847969417
0,974,0.025,971.847969417
0,975,0.025,972.91332013
0,973,0.05,975.139324091
0,972,0.0,973.293578592
0,974,0.0,972.293578592
0,977,0.0,974.397526864
0,979,0.025,977.878268805
0,976,0.125,978.868577516
0,976,0.0,976.878268805
0,975,0.0,976.878268805
0,979,0.1,975.878268805
0,978,0.025,978.868577516
0,977,0.025,978.79669727
0,976,0.025,977.314788163
0,972,0.1,976.314788163
0,973,0.025,972.293578592
0,974,0.0,973.293578592
0,973,0.0,974.314788163
0,973,0.0,973.293578592
0,969,0.0,973.293578592
0,968,0.0,969.293578592
0,972,0.025,968.293578592
0,971,0.0,972.293578592
0,972,0.0,971.293578592
0,972,0.0,971.905505014
0,969,0.0,971.905505014
0,966,0.0,968.905505014
0,969,0.0,966.751295095
0,969,0.0,968.905505014
0,971,0.0,968.905505014
0,971,0.0,970.905505014
0,971,0.0,971.53385351
0,970,0.0,971.373697457
0,970,0.0,970.26158822
0,971,0.0,969.883111754
0,969,0.0,970.918178228
0,967,0.0,969.242724759
0,965,0.0,967.827999881
0,965,0.0,965.751295095
0,965,0.025,965.751295095
0,964,0.0,965.751295095
0,966,0.0,964.751295095
0,965,0.0,966.225906566
0,963,0.0,965.225906566
0,961,0.025,963.225906566
0,963,0.05,961.983334362
0,964,0.05,962.558134597
0,965,0.0,964.290694218
0,965,0.0,965.503485952
0,962,0.0,965.503485952
0,959,0.025,962.503485952
0,960,0.0,959.088334053
0,961,0.0,960.088334053
0,963,0.0,961.361833837
0,963,0.0,963.503485952
0,959,0.025,963.952440167
0,960,0.025,959.553283686
0,958,0.0,960.553283686
0,960,0.0,958.68729858
0,959,0.0,960.68729858
0,958,0.0,960.081109006
0,956,0.0,959.081109006
0,958,0.025,956.103094168
0,961,0.0,959.081109006
0,962,0.025,962.081109006
0,965,0.1,963.656776304
0,967,0.0,965.666708117
0,962,0.025,966.979599916
0,959,0.025,963.656776304
0,958,0.0,960.656776304
0,961,0.0,959.656776304
0,962,0.025,962.656776304
0,961,0.025,964.059743413
0,959,0.025,963.059743413
0,959,0.0,960.141820389
0,960,0.0,960.141820389
0,960,0.0,961.141820389
0,961,0.0,961.099274272
0,961,0.0,961.769491991
0,956,0.025,961.838644393
0,956,0.0,956.103094168
0,955,0.0,956.103094168
0,958,0.075,955.103094168
0,959,0.0,958.587051075
0,960,0.0,959.587051075
0,958,0.025,960.587051075
0,957,0.0,958.710935753
0,958,0.025,957.710935753
0,959,0.0,958.710935753
0,961,0.0,959.710935753
0,960,0.0,961.710935753
0,959,0.0,961.097655027
0,958,0.025,959.468358519
0,961,0.075,958.468358519
0,962,0.0,961.468358519
0,967,0.2,963.227850963
0,969,0.05,967.242724759
0,973,0.05,969.242724759
0,970,0.0,973.242724759
0,975,0.1,970.242724759
0,975,0.0,975.520351714
0,975,0.0,976.8642462
0,974,0.0,976.30497234
0,971,0.0,974.913480638
0,970,0.0,970.269907332
0,972,0.0,968.588935132
0,974,0.0,970.712254592
0,976,0.0,974.339436447
0,977,0.0,976.837605513
0,976,0.0,977.837605513
0,975,0.0,976.837605513
0,978,0.0,975.837605513
0,980,0.025,978.216267164
0,982,0.025,981.051387014
0,981,0.0,981.868577516
0,977,0.0,981.508004261
0,975,0.0,977.286323859
0,975,0.0,975.286323859
0,976,0.0,974.600426701
0,978,0.0,975.720298691
0,978,0.025,977.53597091
0,975,0.025,978.275179637
0,973,0.0,974.720298691
0,976,0.0,971.712254592
0,977,0.0,974.904209084
0,982,0.025,975.904209084
0,983,0.025,982.055602983
0,978,0.025,984.538922088
0,969,0.375,978.434838022
0,966,0.0,967.712254592
0,967,0.0,966.666708117
0,963,0.0,965.712254592
0,960,0.0,964.227850963
0,956,0.0,961.227850963
0,955,0.0,955.959495674
0,955,0.0,955.103094168
0,957,0.05,955.103094168
0,958,0.0,956.959495674
0,955,0.0,957.959495674
0,954,0.0,955.103094168
0,953,0.025,954.103094168
0,952,0.075,952.772165918
0,950,0.0,951.540516143
0,953,0.0,949.891633377
0,952,0.0,952.540516143
0,951,0.0,952.5783613
0,949,0.025,951.5783613
0,949,0.025,948.226900355
0,953,0.025,948.226900355
0,953,0.0,953.5783613
0,953,0.0,954.60485291
0,953,0.0,954.123397037
0,951,0.0,953.786377926
0,953,0.0,951.550464548
0,953,0.0,953.550464548
0,954,0.0,953.985325184
0,954,0.0,954.689727629
0,954,0.0,954.78280934
0,950,0.0,954.547966538
0,946,0.25,950.383576577
0,943,0.025,937.224035849
0,939,0.025,938.937455487
0,934,0.0,934.937455487
0,932,0.025,929.956218841
0,929,0.025,933.078227278
0,924,0.0,930.078227278
0,914,0.15,923.854759095
0,905,0.25,913.8
0,906,0.5,901.0
0,916,0.95,902.0
0,934,0.65,914.312
0,960,0.625,929.956218841
0,991,0.925,959.959495674
0,1024,0.975,989.290844765
0,1071,0.075,1074.7
0,1121,0.675,1123.0
0,1165,0.8,1178.80052
0,1198,1.0,1222.80052
0,1215,1.0,1255.80052
0,1199,1.0,1231.9
0,1144,1.0,1141.6
0,1067,0.925,1064.6
0,992,1.0,1064.0725996
0,947,0.075,992.1273397
0,931,0.675,942.956218841
0,931,0.0,930.854759095
0,933,0.0,930.854759095
0,937,0.025,928.956218841
0,937,0.0,932.956218841
0,937,0.0,932.956218841
0,943,0.1,932.956218841
0,946,0.125,938.956218841
0,945,0.05,927.359777566
0,945,0.025,940.383129899
0,944,0.0,940.383129899
0,944,0.0,939.383129899
0,944,0.0,940.468190929
0,942,0.0,941.52773365
0,944,0.0,937.956218841
0,941,0.0,942.269413555
0,939,0.0,936.956218841
0,941,0.05,934.956218841
0,941,0.05,937.569353189
0,943,0.025,937.569353189
0,940,0.0,942.388589489
0,939,0.0,936.569353189
0,941,0.05,935.698547232
0,943,0.05,938.388983062
0,944,0.0,943.172012642
0,942,0.0,944.720408849
0,944,0.0,939.388983062
0,941,0.0,944.804286195
0,939,0.0,938.388983062
0,940,0.0,936.388983062
0,938,0.0,937.572288144
0,940,0.0,936.600601701
0,940,0.0,938.600601701
0,938,0.0,939.62042119
0,936,0.2,937.734294833
0,937,0.0,935.734294833
0,939,0.0,936.734294833
0,940,0.0,938.734294833
0,940,0.0,940.414006383
0,939,0.0,940.589804468
0,939,0.0,939.412863128
0,941,0.0,938.989004189
0,943,0.0,940.992302933
0,944,0.0,944.163000336
0,943,0.0,945.414100235
0,943,0.0,942.992302933
0,940,0.0,943.602909115
0,941,0.0,939.992302933
0,945,0.175,940.094612053
0,944,0.0,945.422036381
0,941,0.0,944.422036381
0,940,0.0,940.094612053
0,934,0.275,939.094612053
0,934,0.025,934.143125268
0,938,0.0,933.066228437
0,938,0.0,937.066228437
0,941,0.0,937.066228437
0,938,0.0,940.066228437
0,936,0.0,937.066228437
0,939,0.0,935.066228437
0,938,0.0,938.066228437
0,938,0.0,938.246359906
0,936,0.0,938.246359906
0,934,0.025,936.246359906
0,935,0.0,933.050131381
0,937,0.0,935.246359906
0,939,0.0,937.246359906
0,938,0.0,939.246359906
0,941,0.0,938.772451934
0,939,0.0,941.772451934
0,935,0.1,939.772451934
0,937,0.0,934.935091967
0,939,0.0,936.940716354
0,943,0.0,938.940716354
0,943,0.0,942.995425467
0,943,0.0,944.196797827
0,942,0.0,943.837758479
0,941,0.0,942.558501448
0,941,0.0,941.558501448
0,941,0.0,941.558501448
0,938,0.0,941.558501448
0,935,0.125,938.558501448
0,933,0.0,935.554564377
0,934,0.0,933.554564377
0,934,0.0,934.558501448
0,936,0.0,934.554564377
0,934,0.0,936.558501448
0,930,0.0,934.988195064
0,929,0.0,929.854759095
0,930,0.0,927.698331366
0,927,0.0,928.788831956
0,929,0.0,926.45218237
0,928,0.0,928.45218237
0,925,0.0,928.216527659
0,923,0.05,925.216527659
0,923,0.05,923.216527659
0,927,0.05,923.216527659
0,929,0.0,927.216527659
0,927,0.0,929.216527659
0,923,0.0,927.751569361
0,922,0.0,919.965914956
0,927,0.0,918.676140469
0,930,0.0,927.751569361
0,931,0.0,930.751569361
0,934,0.0,932.426098553
0,935,0.0,934.558501448
0,935,0.0,935.558501448
0,939,0.0,935.558501448
0,945,0.0,939.558501448
0,947,0.125,945.586430935
0,947,0.05,947.586430935
0,946,0.0,947.586430935
0,946,0.025,946.586430935
0,949,0.0,941.827182594
0,948,0.0,949.383576577
0,951,0.025,945.079027815
0,954,0.0,951.383576577
0,957,0.025,954.383576577
0,955,0.0,964.771646972
0,958,0.025,956.168503604
0,959,0.025,965.771646972
0,959,0.025,966.771646972
0,959,0.025,966.771646972
0,957,0.0,966.771646972
0,956,0.0,964.771646972
0,960,0.0,957.168503604
0,962,0.0,967.771646972
0,965,0.0,961.266695682
0,966,0.0,964.266695682
0,964,0.0,965.266695682
0,961,0.025,963.266695682
0,963,0.0,967.64015288
0,965,0.1,961.886686977
0,967,0.025,964.820680884
0,967,0.0,968.637002771
0,966,0.0,968.74590194
0,965,0.0,965.820680884
0,966,0.0,964.820680884
0,965,0.0,965.820680884
0,964,0.0,964.820680884
0,962,0.0,963.820680884
0,959,0.025,965.748107016
0,957,0.0,962.748107016
0,959,0.025,960.748107016
0,960,0.025,962.748107016
0,961,0.025,963.748107016
0,963,0.0,963.923674911
0,959,0.025,962.574476619
0,957,0.0,961.346572438
0,957,0.0,959.346572438
0,962,0.0,959.346572438
0,962,0.0,964.346572438
0,963,0.0,964.346572438
0,962,0.0,965.346572438
0,957,0.0,964.346572438
0,958,0.0,956.518755544
0,960,0.025,960.346572438
0,962,0.0,962.346572438
0,963,0.0,964.242600707
0,960,0.025,965.242600707
0,953,0.025,962.242600707
0,955,0.025,954.168503604
0,954,0.0,953.717952523
0,955,0.0,952.717952523
0,956,0.0,953.802566766
0,955,0.0,955.014190216
0,953,0.0,953.802566766
0,953,0.0,951.802566766
0,956,0.0,951.561796736
0,953,0.0,954.993257715
0,955,0.0,951.993257715
0,953,0.0,953.395280401
0,954,0.0,951.395280401
0,953,0.0,952.27669628
0,958,0.15,952.093687396
0,957,0.0,958.669820495
0,956,0.0,957.669820495
0,954,0.0,956.266953206
0,952,0.0,953.065581177
0,954,0.0,950.745906824
0,957,0.0,952.745906824
0,955,0.0,957.669820495
0,954,0.0,954.722134777
0,951,0.0,953.722134777
0,949,0.025,950.505494344
0,951,0.0,946.079027815
0,951,0.0,950.505494344
0,953,0.025,950.505494344
0,952,0.025,952.505494344
0,953,0.025,952.253846041
0,953,0.025,953.253846041
0,953,0.0,953.477692228
0,958,0.0,953.33438456
0,959,0.0,958.669820495
0,958,0.0,959.669820495
0,955,0.0,957.449022168
0,953,0.025,955.234069192
0,955,0.0,953.234069192
0,956,0.0,954.563848434
0,960,0.025,955.563848434
0,960,0.025,960.669820495
0,958,0.05,961.668874346
0,955,0.0,959.28256495
0,957,0.0,954.563848434
0,956,0.0,958.168212042
0,958,0.025,956.808456825
0,957,0.0,959.168212042
0,956,0.0,958.168212042
0,953,0.05,956.516143844
0,954,0.05,952.563848434
0,955,0.05,952.794693904
0,956,0.0,954.456285733
0,954,0.0,955.456285733
0,953,0.0,953.456285733
0,954,0.0,952.019400013
0,957,0.0,953.013580009
0,960,0.0,958.168212042
0,962,0.0,961.168212042
0,962,0.0,962.65804548
0,962,0.0,962.65804548
0,965,0.0,962.65804548
0,965,0.1,965.65804548
0,971,0.375,965.65804548
0,971,0.0,969.712254592
0,973,0.0,971.898578215
0,972,0.0,973.62900475
0,974,0.025,972.62900475
0,975,0.0,972.904209084
0,977,0.025,974.832946359
0,978,0.0,975.804386616
0,979,0.0,977.763070631
0,979,0.0,979.134149442
0,976,0.0,979.134149442
0,977,0.0,976.183062451
0,978,0.0,977.134149442
0,979,0.0,978.393904609
0,977,0.0,979.575733226
0,975,0.0,977.575733226
0,970,0.05,975.183062451
0,972,0.0,970.62900475
0,973,0.0,970.940303325
0,975,0.0,971.940303325
0,972,0.0,974.528143716
0,972,0.0,970.940303325
0,968,0.025,970.940303325
0,968,0.0,969.222131358
0,971,0.0,967.655491951
0,978,0.125,969.940303325
0,978,0.025,977.803013258
0,978,0.0,979.962109281
0,971,0.05,979.373476497
0,967,0.0,971.158212328
0,967,0.0,966.758844365
0,966,0.0,965.631191056
0,961,0.25,966.65804548
0,959,0.05,962.71774843
0,956,0.0,958.702423901
0,956,0.0,957.261300691
0,954,0.0,957.261300691
0,956,0.0,953.609506006
0,956,0.0,955.126654204
0,954,0.0,955.126654204
0,952,0.0,953.126654204
0,951,0.0,950.788657943
0,956,0.05,949.788657943
0,955,0.0,954.788657943
0,954,0.0,953.788657943
0,952,0.0,952.788657943
0,950,0.0,950.85206056
0,950,0.0,948.85206056
0,954,0.0,948.85206056
0,952,0.025,952.85206056
0,952,0.025,952.396442392
0,951,0.0,952.396442392
0,951,0.0,951.396442392
0,952,0.025,951.396442392
0,953,0.025,952.396442392
0,953,0.0,953.396442392
0,953,0.0,953.577509674
0,950,0.0,953.404256772
0,947,0.075,950.28297974
0,943,0.025,944.079027815
0,937,0.05,944.590951013
0,933,0.05,938.590951013
0,930,0.0,934.426098553
0,927,0.025,931.426098553
0,921,0.125,927.098268987
0,915,0.075,918.373298328
0,911,0.475,913.312
0,917,0.925,909.312
0,937,0.425,915.312
0,965,0.475,938.590951013
0,999,0.775,965.65804548
0,1036,1.0,997.549311742
0,1079,1.0,1086.0
0,1132,0.925,1129.0
0,1180,0.425,1189.80052
0,1212,0.125,1223.0
0,1231,0.45,1237.8
0,1228,1.0,1227.0
0,1194,1.0,1224.0
0,1123,1.0,1114.6
0,1037,0.9,1040.0
0,971,0.825,1036.82909332
0,938,0.4,970.829093323
0,931,0.225,939.590951013
0,933,0.0,931.098268987
0,937,0.025,933.098268987
0,942,0.0,938.590951013
0,944,0.0,941.210501655
0,945,0.0,943.210501655
0,943,0.0,945.047351158
0,946,0.025,944.590951013
0,947,0.0,945.433145811
0,947,0.0,945.83872363
0,946,0.0,946.487106541
0,943,0.0,945.640974579
0,945,0.0,944.590951013
0,945,0.0,943.703202067
0,948,0.0,943.703202067
0,947,0.0,947.448682205
0,947,0.0,946.448682205
0,944,0.0,946.314077543
0,946,0.0,942.703202067
0,950,0.0,945.51985428
0,951,0.0,950.28297974
0,951,0.0,951.28297974
0,948,0.0,951.28297974
0,947,0.0,948.263897996
0,949,0.0,947.263897996
0,950,0.0,948.884728597
0,949,0.0,950.28297974
0,949,0.0,949.555090774
0,945,0.025,949.555090774
0,946,0.0,943.192241447
0,948,0.0,945.884728597
0,949,0.0,948.219310018
0,949,0.0,949.555090774
0,950,0.0,949.555090774
0,948,0.0,950.28297974
0,946,0.0,948.219310018
0,945,0.0,946.219310018
0,946,0.0,944.553517013
0,947,0.0,945.553517013
0,949,0.0,946.987461909
0,945,0.0,949.688563542
0,946,0.0,945.291223336
0,948,0.025,946.291223336
0,950,0.0,948.503856335
0,950,0.0,950.28297974
0,952,0.025,951.081994479
0,949,0.35,952.28297974
0,945,0.0,949.757396136
0,947,0.0,945.503856335
0,950,0.0,947.503856335
0,951,0.0,950.757396136
0,951,0.0,951.28297974
0,950,0.0,951.28297974
0,950,0.0,950.910786875
0,949,0.0,950.337550812
0,952,0.0,949.236285569
0,951,0.025,952.28297974
0,951,0.0,951.28297974
0,949,0.0,951.28297974
0,947,0.0,948.905779929
0,950,0.0,947.952699435
0,950,0.0,949.905779929
0,951,0.0,950.83404595
0,950,0.0,951.583832165
0,948,0.0,950.708682515
0,947,0.0,948.196077761
0,949,0.0,947.066889604
0,949,0.0,949.196077761
0,950,0.0,949.196077761
0,948,0.0,950.196077761
0,948,0.0,948.437254433
0,946,0.0,948.437254433
0,947,0.0,945.746822723
0,947,0.0,946.222775906
0,951,0.0,946.755943134
0,951,0.0,951.437254433
0,952,0.0,952.506078103
0,947,0.3,952.28297974
0,949,0.0,946.829160194
0,949,0.0,950.054254672
0,951,0.0,950.054254672
0,946,0.0,952.054254672
0,948,0.0,944.380412136
0,946,0.0,949.33797827
0,946,0.0,943.366288495
0,944,0.0,943.556401947
0,945,0.025,942.289481363
0,944,0.0,943.289481363
0,941,0.0,942.134569013
0,939,0.0,942.590951013
0,939,0.0,940.590951013
0,940,0.0,939.513665709
0,940,0.0,940.359565997
0,940,0.0,940.551696198
0,939,0.0,940.386187338
0,937,0.05,939.270331137
0,938,0.05,936.889231796
0,940,0.0,937.889231796
0,942,0.025,939.889231796
0,943,0.0,942.522462257
0,943,0.0,941.394198309
0,941,0.0,942.175938816
0,942,0.0,941.522462257
0,946,0.0,942.522462257
0,948,0.0,944.289481363
0,949,0.0,949.33797827
0,948,0.0,950.33797827
0,948,0.0,949.33797827
0,954,0.0,948.002636954
0,958,0.05,954.28297974
0,961,0.025,957.702423901
0,963,0.075,960.702423901
0,962,0.025,963.65804548
0,965,0.15,962.691696731
0,965,0.05,966.060631836
0,969,0.05,966.060631836
0,969,0.0,947.807524041
0,971,0.0,947.807524041
0,970,0.0,949.807524041
0,967,0.05,955.765266828
0,971,0.025,966.041833739
0,973,0.0,960.73568678
0,974,0.0,967.014980746
0,975,0.0,974.269700601
0,974,0.025,975.488790421
0,973,0.0,974.642153294
0,975,0.025,973.149507306
0,975,0.0,975.149507306
0,978,0.0,975.704655114
0,976,0.0,978.961433548
0,974,0.05,976.49325858
0,972,0.025,974.49325858
0,976,0.0,966.014980746
0,975,0.0,975.745281006
0,974,0.0,974.745281006
0,973,0.0,973.521696704
0,975,0.0,972.365187693
0,973,0.0,974.365187693
0,974,0.0,973.155631385
0,975,0.025,974.155631385
0,976,0.025,975.40894197
0,976,0.0,976.586259379
0,975,0.025,976.586259379
0,971,0.025,975.586259379
0,971,0.0,965.014980746
0,972,0.0,965.610486522
0,974,0.0,968.227340565
0,972,0.0,974.110381565
0,973,0.0,968.227340565
0,969,0.0,973.677267096
0,971,0.0,965.227340565
0,975,0.05,967.227340565
0,973,0.0,975.677267096
0,971,0.0,974.674086967
0,971,0.025,968.959138396
0,968,0.0,968.971396877
0,971,0.025,966.579977814
0,972,0.0,969.579977814
0,973,0.0,971.90598447
0,971,0.0,974.674086967
0,972,0.0,970.90598447
0,969,0.0,971.334189129
0,971,0.0,968.334189129
0,972,0.0,970.334189129
0,973,0.0,972.13393239
0,970,0.0,974.674086967
0,968,0.0,970.13393239
0,969,0.0,967.193752673
0,970,0.0,968.193752673
0,971,0.0,969.193752673
0,971,0.0,970.735626871
0,970,0.0,971.11493881
0,970,0.0,970.080457167
0,968,0.0,969.756320017
0,966,0.0,967.829424012
0,967,0.0,964.000244281
0,967,0.0,966.829424012
0,968,0.0,966.829424012
0,966,0.0,967.829424012
0,963,0.0,965.761083788
0,965,0.15,964.060631836
0,969,0.025,964.761083788
0,968,0.0,968.829424012
0,967,0.0,967.829424012
0,964,0.0,966.532758652
0,962,0.075,963.842442285
0,964,0.1,962.691696731
0,966,0.025,962.9897096
0,969,0.0,965.372931056
0,968,0.0,968.829424012
0,969,0.0,967.829424012
0,965,0.0,968.829424012
0,968,0.0,964.89279672
0,969,0.0,967.829424012
0,970,0.0,968.829424012
0,969,0.0,969.829424012
0,969,0.0,969.180596808
0,967,0.0,969.180596808
0,966,0.025,967.382736218
0,968,0.0,965.667915352
0,971,0.0,968.180596808
0,970,0.0,971.180596808
0,969,0.0,971.026417766
0,968,0.0,969.418492436
0,968,0.125,968.367540747
0,970,0.0,968.418492436
0,971,0.025,970.418492436
0,969,0.075,971.892944705
0,972,0.0,969.925061294
0,966,0.0,972.925061294
0,969,0.0,965.970094966
0,971,0.0,969.925061294
0,972,0.0,971.925061294
0,972,0.0,973.247542906
0,970,0.0,973.247542906
0,969,0.0,971.247542906
0,971,0.0,969.273280034
0,973,0.0,971.273280034
0,975,0.025,973.791296024
0,977,0.025,976.674086967
0,977,0.0,978.573003483
0,978,0.025,978.771860877
0,981,0.05,979.190771707
0,983,0.025,982.133540195
0,984,0.05,984.977245462
0,985,0.05,985.977245462
0,984,0.0,985.235721318
0,983,0.025,984.465004923
0,986,0.0,983.025503446
0,990,0.125,986.025503446
0,991,0.025,988.290844765
0,992,0.0,989.290844765
0,992,0.0,981.054817236
0,989,0.05,984.638372065
0,991,0.0,989.025503446
0,991,0.0,985.846860446
0,990,0.0,987.992802312
0,989,0.0,987.894961618
0,987,0.05,986.894961618
0,987,0.025,987.025503446
0,988,0.0,987.025503446
0,988,0.0,988.025503446
0,989,0.0,988.025503446
0,988,0.0,988.593831828
0,988,0.0,987.593831828
0,992,0.0,987.41568228
0,993,0.0,989.894961618
0,992,0.025,992.726473133
0,986,0.0,991.726473133
0,983,0.0,986.025503446
0,978,0.0,983.025503446
0,975,0.0,979.133540195
0,972,0.0,976.771860877
0,971,0.0,972.791296024
0,970,0.0,971.791296024
0,969,0.0,970.253907217
0,968,0.0,968.877735052
0,964,0.0,967.877735052
0,968,0.0,963.89279672
0,969,0.0,967.877735052
0,971,0.0,968.877735052
0,970,0.0,970.877735052
0,968,0.0,970.514414536
0,966,0.0,968.060090175
0,966,0.0,966.082742573
0,969,0.0,966.082742573
0,969,0.0,969.060090175
0,970,0.0,969.060090175
0,967,0.0,970.060090175
0,967,0.0,967.082742573
0,967,0.0,966.157919801
0,966,0.0,966.410543861
0,968,0.0,965.587380703
0,969,0.0,968.342063123
0,966,0.0,969.342063123
0,965,0.0,966.311166492
0,965,0.0,965.311166492
0,969,0.0,965.311166492
0,967,0.0,969.342063123
0,965,0.0,967.311166492
0,963,0.0,963.724957704
0,961,0.075,961.724957704
0,962,0.025,961.691696731
0,959,0.075,961.884187711
0,954,0.05,958.884187711
0,943,0.825,955.998085818
0,936,0.0,943.522462257
0,931,0.025,936.522462257
0,924,0.025,931.098268987
0,922,0.0,921.373298328
0,936,0.25,919.373298328
0,960,0.075,936.522462257
0,994,0.475,959.884187711
0,1030,0.25,993.508531193
0,1074,0.075,1080.7
0,1132,0.275,1124.0
0,1193,0.525,1189.80052
0,1242,0.925,1219.932
0,1267,1.0,1292.0
0,1260,0.65,1254.0
0,1221,1.0,1261.33797827
0,1144,1.0,1141.6
0,1051,0.975,1055.1
0,977,0.65,1048.30040339
0,944,0.3,976.933619943
0,944,0.325,944.522462257
0,955,0.15,931.507347014
0,963,0.3,954.898660073
0,967,0.275,970.118931398
0,962,0.025,966.617816544
0,959,0.1,969.118931398
0,957,0.0,966.118931398
0,958,0.05,964.118931398
0,959,0.025,965.118931398
0,958,0.025,966.118931398
0,958,0.025,965.118931398
0,957,0.025,965.118931398
0,955,0.0,964.118931398
0,956,0.025,954.898660073
0,957,0.025,955.861914765
0,957,0.025,956.861914765
0,957,0.025,957.203340336
0,957,0.025,957.142338235
0,953,0.075,957.099636764
0,956,0.025,952.898660073
0,957,0.0,954.729062051
0,959,0.0,957.069745735
0,958,0.025,959.348822015
0,958,0.025,958.348822015
0,956,0.0,957.94417541
0,955,0.0,955.960922787
0,956,0.0,953.729062051
0,958,0.025,955.960922787
0,959,0.0,957.960922787
0,956,0.0,959.572645951
0,956,0.0,956.572645951
0,954,0.025,956.572645951
0,957,0.0,952.729062051
0,956,0.0,957.572645951
0,954,0.0,954.510343436
0,954,0.025,952.510343436
0,953,0.05,952.357240405
0,954,0.025,951.850068283
0,955,0.0,952.895047798
0,960,0.025,954.526533459
0,958,0.05,961.300852166
0,956,0.0,959.300852166
0,953,0.0,955.526533459
0,956,0.025,952.526533459
0,956,0.0,954.768573421
0,959,0.025,954.768573421
0,962,0.075,965.483251979
0,959,0.1,968.483251979
0,958,0.025,959.310596516
0,959,0.25,958.310596516
0,960,0.1,958.917417561
0,961,0.05,959.917417561
0,959,0.075,965.838276385
0,958,0.025,962.686793469
0,956,0.0,957.917417561
0,956,0.0,954.768573421
0,958,0.025,954.768573421
0,957,0.025,957.642192293
0,955,0.0,957.349534605
0,956,0.025,953.768573421
0,955,0.025,955.944674223
0,955,0.025,953.768573421
0,960,0.1,953.768573421
0,960,0.025,959.944674223
0,961,0.025,959.944674223
0,956,0.05,963.8565288
0,954,0.0,954.768573421
0,956,0.0,952.768573421
0,958,0.025,954.538001395
0,960,0.0,957.944674223
0,956,0.05,962.29957016
0,957,0.0,954.538001395
0,953,0.025,959.209699112
0,956,0.025,951.538001395
0,953,0.0,953.776600976
0,957,0.025,954.33797827
0,956,0.025,959.209699112
0,953,0.0,953.543620683
0,950,0.0,950.543620683
0,953,0.0,951.33797827
0,953,0.075,950.380534478
0,958,0.1,952.066374135
0,956,0.0,959.685023259
0,954,0.0,955.346461894
0,950,0.075,953.346461894
0,951,0.025,950.036584789
0,953,0.075,949.942523326
0,955,0.025,951.942523326
0,955,0.0,954.859766328
0,952,0.025,954.859766328
0,952,0.025,951.477926547
0,952,0.05,951.859766328
0,952,0.05,951.859766328
0,953,0.05,951.859766328
0,957,0.1,952.859766328
0,955,0.025,959.679516281
0,954,0.0,955.20183643
0,957,0.0,954.20183643
0,960,0.0,959.209699112
0,963,0.475,962.209699112
0,963,0.875,965.446789378
0,963,0.225,965.446789378
0,965,0.25,964.294062345
0,968,0.475,965.932471581
0,971,0.7,968.342063123
0,974,0.9,971.340302614
0,976,0.9,974.340302614
0,976,0.125,977.13821183
0,976,0.1,977.13821183
0,975,0.075,977.13821183
0,978,0.15,976.13821183
0,978,0.05,955.305434695
