annotCls,ecg,anomalyScore,multiStepBestPredictions.1
0,931,0.975,None
0,935,0.35,931.0
0,935,0.0,937.0
0,939,0.0,934.0
0,943,0.575,940.0
0,947,0.05,942.0
0,948,0.0,948.0
0,951,0.0,948.0
0,949,0.125,952.0
0,951,0.075,948.0
0,951,0.025,952.0
0,952,0.5,950.0
0,949,0.0,951.0
0,948,0.0,948.0
0,947,0.0,948.0
0,950,0.0,948.0
0,952,0.0,949.0
0,952,0.5,949.0
0,951,0.325,949.0
0,947,0.05,950.0
0,947,0.0,948.0
0,946,0.0,948.0
0,947,0.0,946.0
0,950,0.0,948.0
0,949,0.075,949.0
0,946,0.0,948.0
0,944,0.0,947.0
0,946,0.0,945.0
0,948,0.0,946.0
0,947,0.0,948.0
0,949,0.0,948.0
0,949,0.0,948.0
0,949,0.025,948.0
0,949,0.0,948.0
0,954,0.2,948.0
0,953,0.325,955.0
0,950,0.05,952.0
0,947,0.175,949.0
0,945,0.0,948.0
0,946,0.0,945.0
0,947,0.0,947.0
0,946,0.0,948.0
0,945,0.0,947.0
0,944,0.0,945.0
0,942,0.025,945.0
0,945,0.0,942.0
0,945,0.0,945.0
0,947,0.0,945.0
0,944,0.025,948.0
0,943,0.0,945.0
0,942,0.025,942.0
0,942,0.425,942.0
0,944,0.625,1234.0
0,944,0.0,945.0
0,943,0.05,945.0
0,936,0.4,942.0
0,933,0.075,936.0
0,936,0.0,934.0
0,939,0.1,937.0
0,942,0.075,940.0
0,941,0.05,943.0
0,937,0.5,942.0
0,934,0.0,939.0
0,938,0.0,935.0
0,940,0.05,939.0
0,939,0.025,941.0
0,939,0.025,940.0
0,938,0.0,940.0
0,936,0.2,939.0
0,941,0.175,934.0
0,942,0.1,941.0
0,941,0.0,942.0
0,936,0.725,942.0
0,933,0.0,934.0
0,932,0.025,931.0
0,934,0.0,931.0
0,935,0.0,935.0
0,936,0.0,934.0
0,938,0.0,934.0
0,940,0.05,939.0
0,940,0.05,939.0
0,941,0.025,939.0
0,943,0.125,941.0
0,946,0.1,942.0
0,946,0.0,947.0
0,945,0.0,947.0
0,948,0.075,945.0
0,951,0.075,948.0
0,951,0.025,952.0
0,954,0.75,950.0
0,950,0.075,954.0
0,950,0.0,949.0
0,955,0.825,948.0
0,957,0.15,955.0
0,961,0.5,955.0
0,964,0.025,963.0
0,964,0.025,963.0
0,961,0.0,963.0
0,958,0.025,962.0
0,958,0.025,960.0
0,959,0.0,960.0
0,959,0.0,960.0
0,958,0.025,960.0
0,955,0.0,959.0
0,956,0.0,955.0
0,958,0.1,957.0
0,956,0.075,959.0
0,956,0.0,955.0
0,955,0.025,955.0
0,960,0.075,956.0
0,963,0.0,962.0
0,965,0.0,963.0
0,962,0.0,965.0
0,954,0.3,963.0
0,951,0.35,955.0
0,948,0.125,952.0
0,945,0.025,948.0
0,945,0.0,945.0
0,943,0.025,945.0
0,942,0.05,942.0
0,938,0.0,942.0
0,937,0.025,940.0
0,935,0.0,939.0
0,936,0.0,934.0
0,935,0.0,934.0
0,937,0.0,934.0
0,937,0.0,939.0
0,933,0.0,939.0
0,930,0.0,931.0
0,932,0.0,931.0
0,934,0.0,931.0
0,936,0.4,935.0
0,932,0.0,934.0
0,932,0.0,931.0
0,930,0.075,931.0
0,932,0.0,931.0
0,931,0.05,931.0
0,934,0.0,931.0
0,933,0.6,935.0
0,933,0.0,931.0
0,930,0.0,934.0
0,932,0.0,931.0
0,935,0.0,931.0
0,933,0.725,937.0
0,924,0.0,931.0
0,916,0.575,923.0
0,910,0.025,919.0
0,908,0.025,916.0
0,902,0.0,917.0
0,897,0.025,904.0
0,902,0.0,901.0
0,917,0.0,904.0
0,942,0.075,919.0
0,969,0.45,942.0
0,991,0.55,967.0
0,1014,0.125,986.0
0,1035,0.375,1043.0
0,1063,0.375,1080.0
0,1098,0.175,982.0
0,1137,0.075,1011.0
0,1165,0.275,1185.0
0,1187,0.05,1195.0
0,1207,0.075,1103.0
0,1213,0.175,1174.0
0,1199,0.2,1212.0
0,1139,0.1,1200.0
0,1058,0.25,1165.0
0,978,0.35,1113.0
0,922,0.225,976.0
0,902,1.0,923.0
0,900,0.0,917.0
0,908,0.025,902.0
0,918,0.0,917.0
0,924,0.0,919.0
0,925,0.025,923.0
0,924,0.025,931.0
0,921,0.0,923.0
0,925,0.2,919.0
0,926,0.075,923.0
0,929,0.3,931.0
0,926,0.0,931.0
0,923,0.0,923.0
0,923,0.025,923.0
0,922,0.0,923.0
0,924,0.025,923.0
0,925,0.0,923.0
0,925,0.0,931.0
0,922,0.0,931.0
0,923,0.05,923.0
0,923,0.025,923.0
0,926,0.075,923.0
0,923,0.05,931.0
0,922,0.0,923.0
0,921,0.0,923.0
0,921,0.0,919.0
0,920,0.0,919.0
0,923,0.0,919.0
0,924,0.0,923.0
0,923,0.025,923.0
0,922,0.0,923.0
0,921,0.0,923.0
0,924,0.025,919.0
0,922,0.075,923.0
0,925,0.0,923.0
0,923,0.025,923.0
0,919,0.0,923.0
0,918,0.0,919.0
0,922,0.0,919.0
0,922,0.075,923.0
0,923,0.05,923.0
0,924,0.025,923.0
0,919,0.0,923.0
0,922,0.025,919.0
0,919,0.4,923.0
0,922,0.0,919.0
0,923,0.075,923.0
0,922,0.0,923.0
0,922,0.0,923.0
0,920,0.0,923.0
0,923,0.075,919.0
0,925,0.0,923.0
0,925,0.0,923.0
0,925,0.0,931.0
0,922,0.0,931.0
0,918,0.1,923.0
0,922,0.025,919.0
0,923,0.0,923.0
0,923,0.025,923.0
0,920,0.05,923.0
0,919,0.0,919.0
0,919,0.0,922.0
0,919,0.0,922.0
0,921,0.0,919.0
0,923,0.0,923.0
0,923,0.0,923.0
0,919,0.0,923.0
0,918,0.0,919.0
0,919,0.0,919.0
0,919,0.0,919.0
0,919,0.0,919.0
0,918,0.0,919.0
0,916,0.0,919.0
0,914,0.0,919.0
0,915,0.0,919.0
0,918,0.0,919.0
0,919,0.0,919.0
0,918,0.0,919.0
0,916,0.0,919.0
0,912,0.0,919.0
0,911,0.0,918.0
0,912,0.0,918.0
0,914,0.0,918.0
0,913,0.0,918.0
0,911,0.0,918.0
0,910,0.0,918.0
0,912,0.0,918.0
0,916,0.0,918.0
0,918,0.0,919.0
0,916,0.0,919.0
0,919,0.0,919.0
0,920,0.0,919.0
0,926,0.025,919.0
0,929,0.0,923.0
0,932,0.0,931.0
0,933,0.0,931.0
0,934,0.0,934.0
0,934,0.575,935.0
0,939,0.275,935.0
0,943,0.575,940.0
0,943,0.1,942.0
0,945,0.0,942.0
0,946,0.0,945.0
0,946,0.0,946.0
0,949,0.0,946.0
0,953,0.0,950.0
0,954,0.0,952.0
0,952,0.375,955.0
0,954,0.225,952.0
0,950,0.425,952.0
0,951,0.025,949.0
0,954,0.75,950.0
0,956,0.0,954.0
0,954,0.2,955.0
0,954,0.125,954.0
0,954,0.125,954.0
0,955,0.025,954.0
0,955,0.025,954.0
0,954,0.125,954.0
0,954,0.075,954.0
0,954,0.125,954.0
0,953,0.125,954.0
0,957,0.05,954.0
0,958,0.1,955.0
0,956,0.0,959.0
0,959,0.3,955.0
0,956,0.025,960.0
0,954,0.2,955.0
0,956,0.0,954.0
0,956,0.0,955.0
0,959,0.3,955.0
0,954,0.175,960.0
0,956,0.0,954.0
0,952,0.425,955.0
0,952,0.025,952.0
0,955,0.775,951.0
0,958,0.2,954.0
0,956,0.0,960.0
0,956,0.0,955.0
0,951,0.475,955.0
0,953,0.1,952.0
0,952,0.35,954.0
0,954,0.225,952.0
0,953,0.125,954.0
0,950,0.0,952.0
0,952,0.0,949.0
0,952,0.425,952.0
0,955,0.675,952.0
0,955,0.025,954.0
0,955,0.0,954.0
0,954,0.125,954.0
0,951,0.1,954.0
0,952,0.0,952.0
0,953,0.6,952.0
0,951,0.0,952.0
0,949,0.0,952.0
0,950,0.0,948.0
0,947,0.175,949.0
0,948,0.0,948.0
0,951,0.0,948.0
0,951,0.025,952.0
0,950,0.175,950.0
0,949,0.0,948.0
0,947,0.125,950.0
0,949,0.0,948.0
0,950,0.0,950.0
0,951,0.025,949.0
0,953,0.3,950.0
0,952,0.0,952.0
0,952,0.025,952.0
0,952,0.3,952.0
0,954,0.5,952.0
0,955,0.025,954.0
0,956,0.0,954.0
0,955,0.025,954.0
0,953,0.125,954.0
0,953,0.025,952.0
0,955,0.125,952.0
0,957,0.0,955.0
0,956,0.025,956.0
0,953,0.125,955.0
0,950,0.05,952.0
0,953,0.1,949.0
0,955,0.125,952.0
0,956,0.0,955.0
0,954,0.025,955.0
0,953,0.125,954.0
0,953,0.025,952.0
0,953,0.025,952.0
0,957,0.225,952.0
0,962,0.7,956.0
0,966,0.025,963.0
0,967,0.0,965.0
0,966,0.0,965.0
0,970,0.0,965.0
0,972,0.0,970.0
0,975,0.15,969.0
0,974,0.0,976.0
0,975,0.0,976.0
0,975,0.0,976.0
0,978,0.0,976.0
0,980,0.0,976.0
0,981,0.05,981.0
0,980,0.0,980.0
0,977,0.0,981.0
0,976,0.0,976.0
0,976,0.0,976.0
0,976,0.0,976.0
0,975,0.0,976.0
0,975,0.0,976.0
0,976,0.0,976.0
0,974,0.0,976.0
0,971,0.05,976.0
0,972,0.0,969.0
0,970,0.075,969.0
0,972,0.0,970.0
0,972,0.025,969.0
0,976,0.0,969.0
0,981,0.1,976.0
0,983,0.0,980.0
0,977,0.0,981.0
0,969,0.075,976.0
0,966,0.0,967.0
0,964,0.025,965.0
0,963,0.025,963.0
0,960,0.0,963.0
0,959,0.0,960.0
0,955,0.05,960.0
0,953,0.2,956.0
0,951,0.05,952.0
0,951,0.0,950.0
0,954,0.5,950.0
0,954,0.1,954.0
0,953,0.05,954.0
0,952,0.0,952.0
0,951,0.0,952.0
0,950,0.1,950.0
0,951,0.0,949.0
0,954,0.35,950.0
0,956,0.0,954.0
0,955,0.025,955.0
0,953,0.175,954.0
0,953,0.025,952.0
0,954,0.15,952.0
0,955,0.025,954.0
0,955,0.025,955.0
0,951,0.55,954.0
0,951,0.0,952.0
0,949,0.0,950.0
0,944,0.075,950.0
0,938,0.1,945.0
0,928,0.925,940.0
0,926,0.0,931.0
0,918,0.3,923.0
0,911,0.0,919.0
0,916,0.0,918.0
0,934,0.0,919.0
0,961,1.0,935.0
0,991,0.075,963.0
0,1021,0.0,986.0
0,1064,0.025,1071.0
0,1121,0.125,1098.0
0,1170,0.125,1166.0
0,1202,0.05,1195.0
0,1218,0.025,1139.0
0,1230,0.025,1230.0
0,1242,0.1,1225.0
0,1252,0.075,1252.0
0,1234,0.075,1234.0
0,1175,0.15,1242.0
0,1083,0.15,1195.0
0,990,0.425,1137.0
0,937,0.625,986.0
0,921,0.075,939.0
0,928,0.025,923.0
0,939,0.875,931.0
0,946,0.8,940.0
0,942,0.05,946.0
0,943,0.0,942.0
0,946,0.0,942.0
0,945,0.0,946.0
0,944,0.0,945.0
0,943,0.0,945.0
0,941,0.0,942.0
0,940,0.05,942.0
0,945,0.7,939.0
0,944,0.0,945.0
0,941,0.025,945.0
0,939,0.225,942.0
0,937,0.025,940.0
0,940,0.025,935.0
0,943,0.55,939.0
0,944,0.025,942.0
0,942,0.0,945.0
0,941,0.0,942.0
0,940,0.05,942.0
0,940,0.05,939.0
0,943,0.55,940.0
0,941,0.025,942.0
0,942,0.1,941.0
0,940,0.025,941.0
0,937,0.025,940.0
0,940,0.0,935.0
0,942,0.075,940.0
0,942,0.075,941.0
0,943,0.075,941.0
0,939,0.0,942.0
0,937,0.025,940.0
0,940,0.025,935.0
0,940,0.05,940.0
0,940,0.05,940.0
0,941,0.025,940.0
0,938,0.25,941.0
0,936,0.2,940.0
0,940,0.0,934.0
0,940,0.05,940.0
0,942,0.075,940.0
0,941,0.025,943.0
0,940,0.05,942.0
0,938,0.0,940.0
0,941,0.025,940.0
0,942,0.075,941.0
0,943,0.075,941.0
0,941,0.0,942.0
0,941,0.025,942.0
0,938,0.4,942.0
0,938,0.025,940.0
0,940,0.05,940.0
0,942,0.075,940.0
0,941,0.025,943.0
0,942,0.1,942.0
0,938,0.075,941.0
0,939,0.025,940.0
0,939,0.025,940.0
0,941,0.025,940.0
0,942,0.075,941.0
0,939,0.025,941.0
0,937,0.025,940.0
0,938,0.0,935.0
0,942,0.1,940.0
0,941,0.0,941.0
0,941,0.025,942.0
0,938,0.4,942.0
0,938,0.025,940.0
0,937,0.025,940.0
0,939,0.0,940.0
0,942,0.075,940.0
0,940,0.05,941.0
0,937,0.025,940.0
0,936,0.0,935.0
0,936,0.0,937.0
0,942,0.05,937.0
0,941,0.0,942.0
0,939,0.225,942.0
0,936,0.2,940.0
0,935,0.0,934.0
0,936,0.45,937.0
0,938,0.0,935.0
0,940,0.05,940.0
0,940,0.05,940.0
0,939,0.025,940.0
0,939,0.025,940.0
0,939,0.025,940.0
0,939,0.025,940.0
0,940,0.05,940.0
0,939,0.025,940.0
0,937,0.025,940.0
0,936,0.0,939.0
0,939,0.0,935.0
0,941,0.025,940.0
0,943,0.25,941.0
0,945,0.0,942.0
0,945,0.025,945.0
0,945,0.0,945.0
0,950,0.025,945.0
0,952,0.0,949.0
0,955,0.575,952.0
0,958,0.2,955.0
0,958,0.025,956.0
0,957,0.0,959.0
0,960,0.375,956.0
0,961,0.0,962.0
0,962,0.0,963.0
0,964,0.0,963.0
0,961,0.0,963.0
0,958,0.0,962.0
0,960,0.0,959.0
0,961,0.0,962.0
0,963,0.0,962.0
0,962,0.0,963.0
0,963,0.0,963.0
0,959,0.0,963.0
0,960,0.0,960.0
0,962,0.0,962.0
0,965,0.0,963.0
0,963,0.0,965.0
0,960,0.0,963.0
0,962,0.0,960.0
0,961,0.0,963.0
0,963,0.0,962.0
0,964,0.0,963.0
0,964,0.0,963.0
0,962,0.0,963.0
0,961,0.0,963.0
0,962,0.0,963.0
0,964,0.0,963.0
0,965,0.0,963.0
0,963,0.0,965.0
0,962,0.0,963.0
0,960,0.0,963.0
0,960,0.0,962.0
0,962,0.0,962.0
0,962,0.0,963.0
0,960,0.0,963.0
0,956,0.0,962.0
0,958,0.1,955.0
0,955,0.0,960.0
0,959,0.375,955.0
0,960,0.175,960.0
0,959,0.0,962.0
0,956,0.0,960.0
0,957,0.0,954.0
0,959,0.175,956.0
0,957,0.0,960.0
0,958,0.0,959.0
0,957,0.0,956.0
0,955,0.025,959.0
0,955,0.2,954.0
0,955,0.15,954.0
0,957,0.15,954.0
0,959,0.0,955.0
0,959,0.1,960.0
0,958,0.0,960.0
0,953,0.5,956.0
0,952,0.0,952.0
0,956,0.775,952.0
0,957,0.0,955.0
0,955,0.025,955.0
0,954,0.125,955.0
0,953,0.05,954.0
0,954,0.2,952.0
0,955,0.05,954.0
0,954,0.15,955.0
0,953,0.05,955.0
0,950,0.025,952.0
0,952,0.0,949.0
0,952,0.0,952.0
0,954,0.5,952.0
0,953,0.05,954.0
0,955,0.0,952.0
0,955,0.0,955.0
0,952,0.475,954.0
0,953,0.075,952.0
0,957,0.15,952.0
0,956,0.0,955.0
0,957,0.0,955.0
0,954,0.075,955.0
0,952,0.075,954.0
0,954,0.2,952.0
0,957,0.05,953.0
0,958,0.05,955.0
0,960,0.0,960.0
0,961,0.0,962.0
0,958,0.0,962.0
0,963,0.025,960.0
0,965,0.0,963.0
0,968,0.0,965.0
0,969,0.0,967.0
0,969,0.0,967.0
0,969,0.0,967.0
0,968,0.025,969.0
0,975,0.175,969.0
0,978,0.0,976.0
0,979,0.025,976.0
0,979,0.0,976.0
0,981,0.0,976.0
0,981,0.0,980.0
0,983,0.0,980.0
0,982,0.025,981.0
0,980,0.0,981.0
0,977,0.0,981.0
0,971,0.05,976.0
0,976,0.0,972.0
0,980,0.0,976.0
0,980,0.0,981.0
0,981,0.0,981.0
0,979,0.0,980.0
0,981,0.0,981.0
0,986,0.075,981.0
0,990,0.0,986.0
0,989,0.0,986.0
0,980,0.4,986.0
0,974,0.15,981.0
0,967,0.3,976.0
0,967,0.0,965.0
0,968,0.0,965.0
0,967,0.0,969.0
0,964,0.0,967.0
0,962,0.0,963.0
0,958,0.0,962.0
0,955,0.0,960.0
0,955,0.0,955.0
0,954,0.0,954.0
0,955,0.0,954.0
0,953,0.125,954.0
0,951,0.0,952.0
0,953,0.175,950.0
0,955,0.025,952.0
0,955,0.0,955.0
0,953,0.225,954.0
0,952,0.0,952.0
0,949,0.0,952.0
0,949,0.1,950.0
0,951,0.0,950.0
0,950,0.0,952.0
0,949,0.0,949.0
0,949,0.1,950.0
0,946,0.0,950.0
0,948,0.025,946.0
0,947,0.0,948.0
0,950,0.0,948.0
0,948,0.175,952.0
0,948,0.025,948.0
0,947,0.0,948.0
0,947,0.0,948.0
0,949,0.0,948.0
0,945,0.05,950.0
0,938,0.025,945.0
0,930,0.85,940.0
0,925,0.325,931.0
0,922,0.05,923.0
0,920,0.0,923.0
0,911,0.425,919.0
0,909,0.0,916.0
0,916,0.0,916.0
0,937,0.075,919.0
0,958,0.225,939.0
0,974,1.0,955.0
0,987,0.35,976.0
0,1003,0.75,986.0
0,1027,0.125,940.0
0,1063,0.025,1063.0
0,1113,0.0,1121.0
0,1157,0.0,1163.0
0,1190,0.05,1190.0
0,1210,0.0,1207.0
0,1219,0.1,1199.0
0,1204,0.1,1230.0
0,1153,0.0,1218.0
0,1076,0.075,1190.0
0,995,0.125,1137.0
0,941,0.025,984.0
0,914,1.0,942.0
0,913,0.0,916.0
0,925,0.0,916.0
0,936,1.0,923.0
0,943,0.025,939.0
0,942,0.0,942.0
0,940,0.0,941.0
0,937,0.025,940.0
0,941,0.0,939.0
0,941,0.025,942.0
0,943,0.45,942.0
0,942,0.0,942.0
0,942,0.0,941.0
0,938,0.275,941.0
0,941,0.025,940.0
0,942,0.075,941.0
0,942,0.025,941.0
0,941,0.025,941.0
0,942,0.075,942.0
0,939,0.075,941.0
0,942,0.075,940.0
0,941,0.025,941.0
0,942,0.075,942.0
0,940,0.0,941.0
0,939,0.025,940.0
0,937,0.025,940.0
0,939,0.025,939.0
0,942,0.075,940.0
0,941,0.025,941.0
0,939,0.2,942.0
0,939,0.025,940.0
0,937,0.025,940.0
0,940,0.025,939.0
0,940,0.05,940.0
0,942,0.075,940.0
0,942,0.075,941.0
0,938,0.275,941.0
0,938,0.05,940.0
0,940,0.05,940.0
0,941,0.025,940.0
0,943,0.0,942.0
0,941,0.0,942.0
0,942,0.075,942.0
0,937,0.35,941.0
0,938,0.0,939.0
0,941,0.025,940.0
0,945,0.55,942.0
0,941,0.0,945.0
0,938,0.4,942.0
0,937,0.025,940.0
0,940,0.0,939.0
0,939,0.0,940.0
0,940,0.025,940.0
0,939,0.0,940.0
0,940,0.025,940.0
0,938,0.025,940.0
0,939,0.025,940.0
0,942,0.05,940.0
0,942,0.075,941.0
0,942,0.075,941.0
0,941,0.0,942.0
0,941,0.0,942.0
0,938,0.3,942.0
0,943,0.575,940.0
0,944,0.0,942.0
0,946,0.0,945.0
0,942,0.0,947.0
0,943,0.0,942.0
0,944,0.0,942.0
0,946,0.0,945.0
0,945,0.0,946.0
0,944,0.0,945.0
0,943,0.0,945.0
0,942,0.0,942.0
0,942,0.0,942.0
0,942,0.075,941.0
0,943,0.0,942.0
0,942,0.0,942.0
0,942,0.0,942.0
0,937,0.3,942.0
0,941,0.5,939.0
0,941,0.25,949.0
0,943,0.5,942.0
0,941,0.45,946.0
0,939,0.325,942.0
0,934,0.5,939.0
0,937,0.15,933.0
0,940,0.1,939.0
0,942,0.175,939.0
0,940,0.1,941.0
0,935,0.325,941.0
0,935,0.1,936.0
0,936,0.025,934.0
0,939,0.15,938.0
0,943,0.625,940.0
0,941,1.0,945.0
0,942,0.15,941.0
0,942,0.075,941.0
0,945,0.75,942.0
0,948,1.0,950.0
0,949,0.95,948.0
0,951,1.0,950.0
0,950,0.05,952.0
0,952,0.2,950.0
0,953,0.35,952.0
0,956,0.875,961.0
0,957,0.2,961.0
0,959,0.6,960.0
0,958,0.65,960.0
0,955,0.0,960.0
0,959,0.275,954.0
0,959,0.1,960.0
0,961,0.2,958.0
0,960,0.025,962.0
0,959,0.025,962.0
0,959,0.025,961.0
0,961,0.1,959.0
0,960,0.0,962.0
0,963,0.15,962.0
0,963,0.075,964.0
0,962,0.025,962.0
0,960,0.0,962.0
0,963,0.0,962.0
0,964,0.15,963.0
0,967,0.2,962.0
0,966,0.0,967.0
0,966,0.0,965.0
0,964,0.0,965.0
0,965,0.0,962.0
0,966,0.0,965.0
0,965,0.0,965.0
0,962,0.0,965.0
0,961,0.0,962.0
0,958,0.1,962.0
0,962,0.6,955.0
0,963,0.0,962.0
0,963,0.0,962.0
0,963,0.0,963.0
0,962,0.0,963.0
0,959,0.05,963.0
0,959,0.125,959.0
0,959,0.125,959.0
0,960,0.2,959.0
0,960,0.025,962.0
0,957,0.0,960.0
0,959,0.275,955.0
0,959,0.125,959.0
0,961,0.25,959.0
0,961,0.0,963.0
0,961,0.0,963.0
0,960,0.0,963.0
0,959,0.125,960.0
0,961,0.25,959.0
0,963,0.025,963.0
0,964,0.0,963.0
0,963,0.0,963.0
0,960,0.0,963.0
0,957,0.05,960.0
0,958,0.15,955.0
0,959,0.225,959.0
0,961,0.275,959.0
0,956,0.225,963.0
0,955,0.05,955.0
0,953,0.1,954.0
0,956,0.15,953.0
0,955,0.025,955.0
0,957,0.05,955.0
0,956,0.025,955.0
0,953,0.3,955.0
0,952,0.15,952.0
0,952,0.1,951.0
0,953,0.2,952.0
0,954,0.125,952.0
0,954,0.075,955.0
0,953,0.075,955.0
0,951,0.05,952.0
0,952,0.05,950.0
0,954,0.525,952.0
0,956,0.05,953.0
0,955,0.05,955.0
0,954,0.15,955.0
0,952,0.075,955.0
0,951,0.025,952.0
0,952,0.025,950.0
0,953,0.2,952.0
0,952,0.025,952.0
0,950,0.1,952.0
0,949,0.05,949.0
0,952,0.125,949.0
0,957,0.075,952.0
0,959,0.275,955.0
0,959,0.125,959.0
0,959,0.125,959.0
0,960,0.175,959.0
0,962,0.0,960.0
0,963,0.0,963.0
0,965,0.025,963.0
0,966,0.0,963.0
0,968,0.075,965.0
0,965,0.0,967.0
0,970,0.225,965.0
0,974,0.35,969.0
0,977,0.1,978.0
0,975,0.0,976.0
0,972,0.025,976.0
0,972,0.0,976.0
0,976,0.0,976.0
0,976,0.0,976.0
0,977,0.0,976.0
0,978,0.0,976.0
0,979,0.025,976.0
0,977,0.0,981.0
0,976,0.0,976.0
0,972,0.0,976.0
0,974,0.0,976.0
0,976,0.0,976.0
0,973,0.0,976.0
0,971,0.0,976.0
0,975,0.0,972.0
0,975,0.0,976.0
0,980,0.05,976.0
0,982,0.025,981.0
0,976,0.0,980.0
0,970,0.025,976.0
0,965,0.0,970.0
0,964,0.0,965.0
0,963,0.025,963.0
0,958,0.05,963.0
0,953,0.475,959.0
0,950,0.175,952.0
0,951,0.05,952.0
0,952,0.025,950.0
0,952,0.025,952.0
0,952,0.025,952.0
0,949,0.025,952.0
0,947,0.25,949.0
0,946,0.025,948.0
0,946,0.0,945.0
0,947,0.0,946.0
0,947,0.0,948.0
0,946,0.0,947.0
0,939,0.275,947.0
0,941,0.15,933.0
0,943,0.025,941.0
0,945,0.025,942.0
0,943,0.025,945.0
0,943,0.025,942.0
0,940,0.025,942.0
0,941,0.05,942.0
0,944,0.45,942.0
0,946,0.0,946.0
0,944,0.0,946.0
0,943,0.0,946.0
0,939,0.025,942.0
0,938,0.025,940.0
0,934,0.4,940.0
0,929,0.05,935.0
0,925,0.075,931.0
0,918,0.375,923.0
0,902,0.325,919.0
0,895,0.025,917.0
0,901,0.025,902.0
0,918,0.0,917.0
0,936,0.0,919.0
0,949,0.175,939.0
0,958,0.275,950.0
0,974,1.0,959.0
0,995,0.425,976.0
0,1033,0.05,941.0
0,1085,0.0,1063.0
0,1137,0.0,990.0
0,1176,0.0,1165.0
0,1197,0.0,1083.0
0,1193,0.025,1200.0
0,1148,0.05,1200.0
0,1066,0.1,1066.0
0,982,0.375,1113.0
0,924,0.2,980.0
0,904,1.0,923.0
0,911,0.0,917.0
0,924,0.0,916.0
0,936,1.0,923.0
0,936,0.0,939.0
0,932,0.025,939.0
0,931,0.1,931.0
0,933,0.0,931.0
0,937,0.2,934.0
0,935,0.025,939.0
0,933,0.725,936.0
0,927,0.0,931.0
0,931,0.15,931.0
0,932,0.025,931.0
0,933,0.0,931.0
0,935,0.025,934.0
0,933,0.725,936.0
0,930,0.0,931.0
0,929,0.05,931.0
0,934,0.25,931.0
0,933,0.675,935.0
0,934,0.05,931.0
0,932,0.775,933.0
0,931,0.1,931.0
0,932,0.025,931.0
0,938,0.7,931.0
0,939,0.075,940.0
0,936,0.0,940.0
0,932,0.025,936.0
0,930,0.1,931.0
0,931,0.05,931.0
0,931,0.05,931.0
0,934,0.075,931.0
0,932,0.775,935.0
0,930,0.1,931.0
0,931,0.05,931.0
0,930,0.025,931.0
0,933,0.0,931.0
0,932,0.25,934.0
0,931,0.1,931.0
0,928,0.1,931.0
0,925,0.0,931.0
0,924,0.025,923.0
0,923,0.025,923.0
0,927,0.025,923.0
0,926,0.0,931.0
0,926,0.0,931.0
0,923,0.025,931.0
0,928,0.025,923.0
0,932,0.05,931.0
0,935,0.025,931.0
0,936,0.45,933.0
0,933,0.0,936.0
0,931,0.0,934.0
0,930,0.0,931.0
0,931,0.025,931.0
0,931,0.025,931.0
0,930,0.0,931.0
0,926,0.15,931.0
0,923,0.0,923.0
0,925,0.0,923.0
0,928,0.025,931.0
0,931,0.025,931.0
0,932,0.025,931.0
0,930,0.025,931.0
0,928,0.0,931.0
0,928,0.0,931.0
0,932,0.05,931.0
0,931,0.025,931.0
0,931,0.025,931.0
0,930,0.0,931.0
0,930,0.0,931.0
0,930,0.0,931.0
0,931,0.025,931.0
0,933,0.0,931.0
0,934,0.05,934.0
0,930,1.0,935.0
0,929,0.025,931.0
0,929,0.025,931.0
0,930,0.0,931.0
0,932,0.025,931.0
0,929,0.125,931.0
0,926,0.025,931.0
0,923,0.0,923.0
0,921,0.0,923.0
0,922,0.0,919.0
0,923,0.05,923.0
0,923,0.025,923.0
0,923,0.025,923.0
0,923,0.025,923.0
0,924,0.025,923.0
0,927,0.15,923.0
0,926,0.0,931.0
0,924,0.025,923.0
0,923,0.025,923.0
0,921,0.0,923.0
0,922,0.0,919.0
0,926,0.05,923.0
0,926,0.025,931.0
0,929,0.025,931.0
0,931,0.025,931.0
0,932,0.025,931.0
0,937,0.5,931.0
0,939,0.025,939.0
0,941,0.05,939.0
0,945,0.55,942.0
0,946,0.0,945.0
0,947,0.0,946.0
0,948,0.05,947.0
0,948,0.05,947.0
0,950,0.0,948.0
0,950,0.0,952.0
0,950,0.1,949.0
0,951,0.025,949.0
0,951,0.025,952.0
0,951,0.025,952.0
0,949,0.025,952.0
0,950,0.15,950.0
0,952,0.025,952.0
0,950,0.1,952.0
0,951,0.025,949.0
0,953,0.2,952.0
0,955,0.05,952.0
0,954,0.15,955.0
0,952,0.075,955.0
0,949,0.3,952.0
0,949,0.025,950.0
0,952,0.0,950.0
0,950,0.05,952.0
0,949,0.025,949.0
0,948,0.075,950.0
0,948,0.0,948.0
0,951,0.0,948.0
0,952,0.0,952.0
0,956,0.625,952.0
0,954,0.175,955.0
0,954,0.075,955.0
0,952,0.075,955.0
0,950,0.05,952.0
0,952,0.025,949.0
0,954,0.35,952.0
0,954,0.075,954.0
0,953,0.075,954.0
0,951,0.025,952.0
0,949,0.025,952.0
0,950,0.15,948.0
0,949,0.025,952.0
0,944,0.325,948.0
0,944,0.0,946.0
0,944,0.0,946.0
0,945,0.025,946.0
0,950,0.0,945.0
0,951,0.0,952.0
0,953,0.0,949.0
0,946,0.2,952.0
0,944,0.0,946.0
0,944,0.0,945.0
0,945,0.0,945.0
0,946,0.0,945.0
0,946,0.0,947.0
0,944,0.0,947.0
0,942,0.05,945.0
0,943,0.0,942.0
0,944,0.0,942.0
0,947,0.0,945.0
0,945,0.025,948.0
0,940,0.025,945.0
0,940,0.075,939.0
0,944,0.675,939.0
0,946,0.0,946.0
0,950,0.0,946.0
0,947,0.275,952.0
0,945,0.0,946.0
0,942,0.0,945.0
0,942,0.0,942.0
0,944,0.475,942.0
0,946,0.0,946.0
0,944,0.0,946.0
0,943,0.0,946.0
0,938,0.025,942.0
0,941,0.075,939.0
0,942,0.1,942.0
0,942,0.0,942.0
0,946,0.65,942.0
0,942,0.075,946.0
0,943,0.0,942.0
0,944,0.0,942.0
0,945,0.0,946.0
0,948,0.075,945.0
0,947,0.0,948.0
0,945,0.0,947.0
0,948,0.0,945.0
0,952,0.0,948.0
0,956,0.05,952.0
0,958,0.3,955.0
0,962,0.525,959.0
0,960,0.0,963.0
0,959,0.0,959.0
0,960,0.15,959.0
0,962,0.35,959.0
0,963,0.0,963.0
0,962,0.0,963.0
0,962,0.0,963.0
0,963,0.0,963.0
0,963,0.0,963.0
0,969,0.025,963.0
0,969,0.0,969.0
0,969,0.0,969.0
0,970,0.0,969.0
0,967,0.025,969.0
0,966,0.0,966.0
0,967,0.025,965.0
0,967,0.025,966.0
0,965,0.0,966.0
0,964,0.0,963.0
0,964,0.0,963.0
0,968,0.025,963.0
0,969,0.0,967.0
0,971,0.0,969.0
0,970,0.0,972.0
0,969,0.0,970.0
0,970,0.0,969.0
0,969,0.0,969.0
0,972,0.0,969.0
0,976,0.0,976.0
0,972,0.0,976.0
0,965,0.075,976.0
0,959,0.125,963.0
0,956,0.05,959.0
0,955,0.025,955.0
0,955,0.025,955.0
0,948,0.825,953.0
0,944,0.0,948.0
0,941,0.025,945.0
0,940,0.1,942.0
0,942,0.125,940.0
0,944,0.6,942.0
0,944,0.0,946.0
0,941,0.0,945.0
0,940,0.075,942.0
0,939,0.05,942.0
0,940,0.075,940.0
0,941,0.05,940.0
0,940,0.15,942.0
0,937,0.05,940.0
0,936,0.0,939.0
0,939,0.0,939.0
0,941,0.05,940.0
0,944,0.475,942.0
0,943,0.0,946.0
0,940,0.0,942.0
0,939,0.05,940.0
0,940,0.075,940.0
0,940,0.075,940.0
0,940,0.075,940.0
0,941,0.05,940.0
0,938,0.3,942.0
0,933,0.425,940.0
0,929,0.0,931.0
0,923,0.05,931.0
0,919,0.0,923.0
0,915,0.025,919.0
0,908,0.0,919.0
0,901,0.0,916.0
0,904,0.0,918.0
0,921,0.0,917.0
0,948,0.325,923.0
0,974,0.45,948.0
0,1007,0.35,976.0
0,1054,0.05,940.0
0,1113,0.05,1113.0
0,1163,0.0,1157.0
0,1195,0.0,1195.0
0,1200,0.025,1200.0
0,1167,0.025,1218.0
0,1092,0.0,1195.0
0,1006,0.125,1137.0
0,939,0.075,1054.0
0,911,1.0,940.0
0,903,0.0,916.0
0,903,0.0,904.0
0,906,0.0,904.0
0,914,0.0,903.0
0,924,0.0,919.0
0,930,0.45,923.0
0,932,0.025,931.0
0,930,0.025,931.0
0,929,0.025,931.0
0,930,0.0,931.0
0,931,0.025,931.0
0,931,0.025,931.0
0,932,0.025,931.0
0,933,0.0,931.0
0,931,0.25,934.0
0,929,0.025,931.0
0,931,0.025,931.0
0,934,0.075,931.0
0,934,0.7,935.0
0,930,1.0,935.0
0,931,0.025,931.0
0,933,0.0,931.0
0,934,0.05,934.0
0,935,0.55,935.0
0,933,0.725,936.0
0,931,0.0,931.0
0,931,0.0,931.0
0,932,0.125,935.0
0,934,0.05,931.0
0,935,0.55,935.0
0,934,0.7,933.0
0,931,0.975,935.0
0,928,0.0,931.0
0,931,0.0,931.0
0,931,0.1,932.0
0,934,0.1,932.0
0,932,0.825,935.0
0,931,0.025,931.0
0,928,0.15,931.0
0,928,0.0,931.0
0,931,0.05,931.0
0,932,0.125,931.0
0,930,0.025,931.0
0,928,0.025,931.0
0,927,0.0,931.0
0,928,0.0,931.0
0,930,0.0,931.0
0,931,0.025,931.0
0,931,0.1,932.0
0,930,0.125,931.0
0,930,0.05,931.0
0,933,0.0,931.0
0,931,0.075,934.0
0,935,0.025,931.0
0,935,0.55,933.0
0,932,0.825,933.0
0,933,0.0,931.0
0,932,0.225,934.0
0,934,0.05,931.0
0,935,0.55,935.0
0,936,0.45,933.0
0,932,0.0,936.0
0,933,0.0,931.0
0,935,0.025,934.0
0,937,0.025,933.0
0,937,0.025,939.0
0,938,0.0,939.0
0,935,0.025,940.0
0,933,0.725,933.0
0,933,0.0,931.0
0,934,0.0,931.0
0,937,0.025,935.0
0,935,0.075,939.0
0,933,0.725,933.0
0,930,0.0,931.0
0,931,0.0,931.0
0,929,0.075,931.0
0,933,0.0,931.0
0,933,0.0,934.0
0,930,0.0,934.0
0,929,0.0,931.0
0,928,0.0,931.0
0,930,0.0,931.0
0,931,0.025,931.0
0,928,0.075,931.0
0,925,0.375,923.0
0,924,0.0,923.0
0,926,0.0,923.0
0,928,0.175,931.0
0,928,0.0,931.0
0,927,0.0,931.0
0,924,0.0,928.0
0,923,0.0,923.0
0,923,0.0,923.0
0,925,0.0,923.0
0,927,0.025,931.0
0,927,0.025,931.0
0,928,0.0,931.0
0,928,0.0,931.0
0,931,0.05,928.0
0,939,0.35,931.0
0,940,0.075,940.0
0,941,0.05,940.0
0,940,0.15,942.0
0,941,0.05,940.0
0,945,0.525,942.0
0,949,0.05,945.0
0,952,0.0,950.0
0,952,0.0,952.0
0,954,0.375,952.0
0,953,0.075,954.0
0,957,0.075,952.0
0,959,0.175,955.0
0,962,0.375,959.0
0,962,0.0,963.0
0,962,0.0,963.0
0,961,0.0,963.0
0,961,0.175,962.0
0,964,0.5,962.0
0,964,0.0,963.0
0,965,0.0,963.0
0,964,0.0,963.0
0,958,0.0,963.0
0,961,0.3,959.0
0,965,0.65,962.0
0,963,0.0,965.0
0,961,0.0,963.0
0,959,0.025,962.0
0,961,0.225,959.0
0,961,0.175,962.0
0,964,0.5,962.0
0,964,0.0,963.0
0,963,0.0,963.0
0,961,0.0,963.0
0,960,0.15,962.0
0,960,0.15,959.0
0,964,0.675,959.0
0,964,0.0,963.0
0,963,0.0,963.0
0,960,0.0,963.0
0,960,0.15,959.0
0,959,0.0,960.0
0,960,0.15,959.0
0,964,0.7,960.0
0,964,0.0,963.0
0,963,0.0,963.0
0,961,0.0,963.0
0,962,0.25,960.0
0,962,0.0,963.0
0,961,0.0,963.0
0,964,0.5,960.0
0,963,0.0,963.0
0,961,0.0,963.0
0,961,0.175,960.0
0,963,0.3,960.0
0,961,0.0,963.0
0,960,0.15,961.0
0,958,0.05,960.0
0,956,0.025,959.0
0,957,0.0,955.0
0,959,0.175,955.0
0,959,0.0,959.0
0,960,0.15,959.0
0,959,0.0,960.0
0,960,0.15,959.0
0,960,0.15,959.0
0,959,0.0,960.0
0,960,0.15,959.0
0,959,0.0,960.0
0,958,0.05,959.0
0,955,0.025,959.0
0,958,0.075,954.0
0,958,0.05,959.0
0,959,0.0,959.0
0,960,0.15,959.0
0,956,0.075,959.0
0,954,0.175,955.0
0,956,0.025,953.0
0,958,0.225,955.0
0,957,0.025,959.0
0,957,0.025,955.0
0,957,0.0,955.0
0,957,0.0,955.0
0,960,0.125,955.0
0,961,0.25,960.0
0,965,0.65,960.0
0,966,0.0,963.0
0,967,0.0,965.0
0,966,0.0,965.0
0,965,0.0,965.0
0,970,0.0,963.0
0,973,0.0,969.0
0,974,0.0,976.0
0,974,0.0,976.0
0,969,0.0,976.0
0,975,0.0,969.0
0,978,0.0,976.0
0,981,0.0,976.0
0,980,0.0,981.0
0,982,0.0,981.0
0,983,0.025,980.0
0,982,0.025,980.0
0,986,0.0,980.0
0,985,0.0,986.0
0,983,0.0,986.0
0,981,0.0,986.0
0,979,0.0,980.0
0,982,0.0,981.0
0,983,0.0,981.0
0,986,0.0,981.0
0,986,0.0,986.0
0,983,0.0,986.0
0,985,0.0,986.0
0,987,0.0,986.0
0,993,0.125,986.0
0,997,0.0,986.0
0,998,0.0,1033.0
0,992,0.175,1033.0
0,982,0.075,986.0
0,974,0.125,983.0
0,972,0.0,976.0
0,971,0.0,976.0
0,971,0.0,972.0
0,968,0.0,969.0
0,968,0.025,969.0
0,966,0.0,969.0
0,963,0.0,965.0
0,963,0.0,963.0
0,957,0.15,963.0
0,954,0.175,955.0
0,952,0.075,953.0
0,954,0.1,952.0
0,955,0.025,954.0
0,958,0.075,954.0
0,954,0.225,959.0
0,952,0.075,954.0
0,950,0.05,952.0
0,952,0.025,949.0
0,954,0.35,952.0
0,955,0.025,954.0
0,954,0.0,954.0
0,953,0.025,954.0
0,952,0.075,952.0
0,949,0.025,952.0
0,952,0.0,950.0
0,953,0.0,952.0
0,951,0.025,952.0
0,950,0.1,952.0
0,949,0.025,949.0
0,948,0.15,950.0
0,951,0.0,948.0
0,949,0.025,952.0
0,943,0.775,950.0
0,935,0.025,942.0
0,924,1.0,933.0
0,922,0.0,923.0
0,920,0.0,919.0
0,915,0.025,919.0
0,910,0.0,919.0
0,918,0.0,916.0
0,936,0.0,919.0
0,968,0.35,939.0
0,1002,0.2,969.0
0,1046,0.2,940.0
0,1101,0.1,1082.0
0,1159,0.05,1137.0
0,1199,0.025,1190.0
0,1221,0.025,1167.0
0,1212,0.05,1230.0
0,1160,0.1,1199.0
0,1069,0.05,1199.0
0,982,0.0,982.0
0,925,0.05,983.0
0,909,0.925,923.0
0,917,0.0,916.0
0,931,0.05,919.0
0,939,0.825,931.0
0,941,0.05,940.0
0,938,0.25,942.0
0,939,0.075,940.0
0,940,0.075,940.0
0,941,0.05,940.0
0,941,0.15,942.0
0,938,0.325,942.0
0,936,0.0,940.0
0,938,0.025,936.0
0,940,0.1,940.0
0,941,0.05,940.0
0,942,0.1,942.0
0,938,0.225,942.0
0,936,0.0,940.0
0,939,0.0,936.0
0,941,0.05,940.0
0,942,0.1,942.0
0,942,0.0,942.0
0,940,0.1,942.0
0,937,0.0,941.0
0,937,0.175,935.0
0,940,0.025,939.0
0,940,0.075,941.0
0,939,0.05,941.0
0,937,0.0,940.0
0,938,0.325,940.0
0,937,0.025,940.0
0,938,0.0,940.0
0,939,0.075,940.0
0,940,0.075,940.0
0,937,0.0,940.0
0,935,0.125,938.0
0,934,0.0,936.0
0,936,0.0,935.0
0,939,0.0,939.0
0,937,0.0,940.0
0,936,0.0,938.0
0,934,0.0,939.0
0,937,0.0,935.0
0,939,0.0,939.0
0,940,0.075,940.0
0,939,0.05,940.0
0,940,0.075,940.0
0,937,0.0,940.0
0,937,0.175,935.0
0,939,0.0,939.0
0,941,0.05,940.0
0,939,0.075,942.0
0,935,0.025,940.0
0,934,0.7,933.0
0,935,0.55,935.0
0,938,0.025,933.0
0,938,0.05,940.0
0,938,0.05,940.0
0,936,0.0,940.0
0,934,0.0,939.0
0,935,0.55,935.0
0,937,0.0,933.0
0,941,0.35,939.0
0,937,0.025,942.0
0,936,0.0,939.0
0,935,0.0,939.0
0,939,0.3,933.0
0,940,0.075,940.0
0,941,0.05,940.0
0,941,0.15,942.0
0,940,0.175,942.0
0,941,0.05,940.0
0,940,0.15,942.0
0,943,0.55,940.0
0,942,0.05,942.0
0,941,0.0,942.0
0,940,0.0,941.0
0,938,0.025,940.0
0,937,0.025,940.0
0,938,0.0,939.0
0,939,0.075,940.0
0,938,0.025,940.0
0,936,0.0,940.0
0,933,0.025,939.0
0,935,0.225,931.0
0,936,0.45,933.0
0,937,0.025,939.0
0,937,0.0,939.0
0,937,0.0,939.0
0,935,0.0,939.0
0,938,0.025,933.0
0,940,0.1,940.0
0,942,0.1,940.0
0,945,0.625,942.0
0,945,0.0,945.0
0,943,0.0,945.0
0,947,0.0,942.0
0,949,0.0,948.0
0,955,0.575,950.0
0,954,0.15,955.0
0,954,0.075,955.0
0,952,0.075,954.0
0,957,0.1,952.0
0,958,0.1,955.0
0,962,0.525,959.0
0,963,0.0,963.0
0,961,0.0,963.0
0,957,0.125,960.0
0,959,0.025,955.0
0,960,0.15,959.0
0,962,0.375,959.0
0,963,0.0,963.0
0,961,0.0,963.0
0,959,0.0,960.0
0,962,0.4,960.0
0,959,0.0,963.0
0,965,0.825,960.0
0,965,0.0,963.0
0,965,0.0,963.0
0,961,0.0,963.0
0,963,0.325,960.0
0,966,0.0,963.0
0,965,0.0,965.0
0,965,0.0,963.0
0,964,0.0,963.0
0,958,0.025,963.0
0,960,0.2,959.0
0,961,0.25,959.0
0,964,0.5,960.0
0,962,0.0,963.0
0,960,0.0,963.0
0,959,0.0,960.0
0,962,0.4,960.0
0,960,0.0,963.0
0,962,0.375,959.0
0,961,0.0,963.0
0,961,0.1,960.0
0,957,0.15,960.0
0,959,0.05,955.0
0,957,0.05,960.0
0,959,0.05,955.0
0,959,0.0,960.0
0,959,0.0,959.0
0,956,0.075,959.0
0,955,0.075,955.0
0,959,0.15,954.0
0,961,0.275,959.0
0,958,0.075,960.0
0,958,0.0,959.0
0,957,0.05,959.0
0,956,0.05,955.0
0,954,0.05,955.0
0,955,0.05,954.0
0,953,0.1,954.0
0,952,0.0,952.0
0,950,0.1,952.0
0,951,0.025,949.0
0,953,0.0,949.0
0,954,0.35,952.0
0,952,0.075,954.0
0,952,0.0,952.0
0,947,0.1,952.0
0,948,0.1,947.0
0,951,0.0,948.0
0,954,0.3,952.0
0,952,0.075,954.0
0,951,0.0,952.0
0,947,0.15,952.0
0,948,0.075,948.0
0,952,0.025,948.0
0,956,0.05,952.0
0,955,0.075,955.0
0,954,0.0,954.0
0,953,0.025,953.0
0,954,0.075,952.0
0,957,0.05,954.0
0,960,0.275,955.0
0,962,0.375,959.0
0,961,0.0,963.0
0,960,0.0,960.0
0,962,0.375,959.0
0,968,0.15,963.0
0,969,0.0,969.0
0,970,0.0,969.0
0,969,0.0,969.0
0,968,0.05,969.0
0,972,0.0,969.0
0,973,0.025,976.0
0,975,0.0,976.0
0,976,0.0,976.0
0,976,0.0,976.0
0,974,0.025,976.0
0,974,0.0,976.0
0,978,0.0,976.0
0,977,0.0,976.0
0,976,0.0,976.0
0,972,0.575,976.0
0,971,0.075,976.0
0,971,0.0,969.0
0,978,0.1,969.0
0,981,0.025,976.0
0,979,0.025,981.0
0,978,0.025,981.0
0,977,0.025,981.0
0,983,0.55,976.0
0,986,0.025,986.0
0,984,0.0,986.0
0,976,0.0,986.0
0,967,0.85,976.0
0,963,0.0,965.0
0,961,0.0,963.0
0,959,0.0,960.0
0,958,0.1,959.0
0,954,0.325,959.0
0,949,0.375,954.0
0,944,0.725,952.0
0,945,0.0,944.0
0,949,0.0,945.0
0,951,0.0,952.0
0,951,0.0,952.0
0,950,0.1,949.0
0,948,0.2,949.0
0,946,0.15,948.0
0,950,0.0,945.0
0,952,0.0,952.0
0,948,0.225,952.0
0,946,0.25,948.0
0,945,0.0,946.0
0,949,0.0,945.0
0,946,0.2,952.0
0,947,0.0,945.0
0,947,0.0,948.0
0,945,0.0,948.0
0,945,0.0,945.0
0,945,0.0,945.0
0,943,0.0,945.0
0,946,0.0,942.0
0,945,0.0,945.0
0,945,0.0,945.0
0,941,0.025,945.0
0,941,0.0,941.0
0,934,0.925,942.0
0,928,1.0,935.0
0,922,0.075,931.0
0,920,0.0,923.0
0,908,0.225,919.0
0,903,0.0,918.0
0,904,0.0,903.0
0,921,0.0,903.0
0,947,0.0,923.0
0,973,0.175,947.0
0,1005,1.0,976.0
0,1052,0.0,939.0
0,1112,0.0,1113.0
0,1163,0.0,1163.0
0,1195,0.0,1195.0
0,1200,0.0,1200.0
0,1174,0.0,1167.0
0,1103,0.0,1197.0
0,1018,0.05,1159.0
0,944,0.05,1035.0
0,909,0.025,945.0
0,904,0.0,916.0
0,917,0.0,904.0
0,929,0.0,919.0
0,935,0.05,931.0
0,936,0.45,933.0
0,936,0.0,939.0
0,934,0.0,939.0
0,935,0.55,935.0
0,938,0.025,936.0
0,941,0.075,940.0
0,941,0.15,942.0
0,941,0.15,942.0
0,939,0.125,942.0
0,936,0.0,940.0
0,934,0.025,934.0
0,937,0.0,935.0
0,938,0.025,939.0
0,934,0.05,940.0
0,933,0.725,935.0
0,931,0.575,931.0
0,932,0.0,931.0
0,934,0.05,931.0
0,934,0.7,935.0
0,935,0.55,935.0
0,934,0.7,936.0
0,931,0.975,935.0
0,933,0.0,931.0
0,934,0.125,931.0
0,934,0.275,935.0
0,935,0.375,935.0
0,934,0.0,934.0
0,931,0.85,935.0
0,933,0.0,931.0
0,935,0.225,931.0
0,936,0.3,934.0
0,934,0.0,934.0
0,932,0.7,935.0
0,933,0.0,931.0
0,935,0.225,931.0
0,935,0.225,934.0
0,936,0.3,934.0
0,936,0.0,934.0
0,933,0.0,939.0
0,931,0.575,931.0
0,933,0.0,931.0
0,931,0.575,931.0
0,929,0.0,931.0
0,932,0.125,928.0
0,929,0.15,931.0
0,930,0.0,928.0
0,931,0.025,931.0
0,935,0.2,931.0
0,933,0.425,936.0
0,933,0.15,931.0
0,930,0.625,931.0
0,931,0.0,931.0
0,929,0.075,931.0
0,931,0.025,928.0
0,933,0.0,931.0
0,936,0.3,934.0
0,935,0.0,939.0
0,934,0.0,936.0
0,933,0.575,935.0
0,935,0.225,931.0
0,937,0.0,934.0
0,938,0.025,939.0
0,935,0.025,940.0
0,931,0.725,934.0
0,930,0.0,931.0
0,932,0.1,931.0
0,938,0.775,931.0
0,937,0.025,940.0
0,934,0.325,938.0
0,930,0.9,935.0
0,933,0.0,931.0
0,934,0.125,931.0
0,934,0.275,935.0
0,933,0.575,935.0
0,931,0.6,931.0
0,929,0.0,931.0
0,927,0.1,931.0
0,931,0.05,923.0
0,931,0.0,931.0
0,930,0.0,931.0
0,930,0.0,931.0
0,930,0.0,931.0
0,930,0.0,931.0
0,933,0.0,931.0
0,935,0.175,934.0
0,933,0.425,934.0
0,931,0.6,931.0
0,930,0.0,931.0
0,931,0.0,931.0
0,937,0.2,931.0
0,939,0.0,939.0
0,939,0.05,940.0
0,938,0.025,940.0
0,938,0.05,940.0
0,938,0.05,940.0
0,942,0.15,940.0
0,943,0.225,942.0
0,948,0.075,942.0
0,948,0.0,948.0
0,947,0.0,948.0
0,947,0.0,948.0
0,948,0.0,947.0
0,949,0.0,948.0
0,950,0.05,952.0
0,952,0.0,952.0
0,949,0.025,952.0
0,950,0.05,950.0
0,952,0.0,952.0
0,955,0.475,952.0
0,953,0.225,955.0
0,953,0.025,952.0
0,953,0.025,952.0
0,952,0.0,952.0
0,953,0.0,952.0
0,955,0.075,952.0
0,954,0.15,955.0
0,954,0.1,954.0
0,950,0.0,954.0
0,949,0.025,952.0
0,952,0.0,950.0
0,954,0.05,952.0
0,953,0.1,954.0
0,953,0.025,952.0
0,947,0.575,952.0
0,948,0.2,947.0
0,946,0.15,948.0
0,950,0.0,945.0
0,950,0.0,952.0
0,949,0.025,949.0
0,946,0.2,950.0
0,948,0.05,945.0
0,949,0.1,948.0
0,952,0.0,950.0
0,950,0.075,952.0
0,949,0.025,949.0
0,946,0.2,952.0
0,944,0.0,945.0
0,948,0.0,945.0
0,946,0.15,948.0
0,947,0.0,945.0
0,946,0.0,948.0
0,944,0.0,945.0
0,946,0.0,945.0
0,947,0.0,947.0
0,946,0.0,948.0
0,945,0.0,945.0
0,942,0.0,945.0
0,941,0.0,942.0
0,941,0.0,941.0
0,943,0.0,942.0
0,944,0.0,942.0
0,945,0.0,945.0
0,944,0.0,945.0
0,941,0.0,945.0
0,941,0.0,941.0
0,943,0.0,942.0
0,944,0.0,942.0
0,943,0.0,945.0
0,945,0.0,942.0
0,939,0.025,945.0
0,942,0.125,940.0
0,942,0.125,942.0
0,939,0.075,942.0
0,942,0.125,940.0
0,942,0.125,942.0
0,939,0.075,942.0
0,942,0.125,940.0
0,942,0.125,942.0
0,948,0.85,942.0
0,944,0.425,948.0
0,943,0.0,945.0
0,942,0.0,942.0
0,943,0.0,942.0
0,945,0.0,942.0
0,947,0.0,945.0
0,948,0.2,948.0
0,950,0.025,948.0
0,949,0.0,949.0
0,951,0.0,952.0
0,954,0.025,952.0
0,955,0.05,954.0
0,956,0.05,954.0
0,956,0.05,955.0
0,955,0.075,955.0
0,958,0.1,954.0
0,960,0.175,959.0
0,967,0.85,959.0
0,965,0.0,965.0
0,964,0.0,963.0
0,964,0.0,963.0
0,967,0.0,963.0
0,968,0.0,965.0
0,967,0.0,969.0
0,965,0.0,965.0
0,964,0.0,963.0
0,964,0.0,963.0
0,966,0.0,963.0
0,967,0.0,965.0
0,970,0.0,965.0
0,972,0.0,969.0
0,973,0.05,976.0
0,968,0.425,976.0
0,961,0.225,969.0
0,953,0.675,960.0
0,953,0.025,952.0
0,953,0.025,952.0
0,950,0.025,952.0
0,945,0.65,952.0
0,944,0.0,945.0
0,944,0.0,945.0
0,942,0.0,945.0
0,939,0.0,942.0
0,940,0.05,940.0
0,937,0.0,941.0
0,939,0.175,938.0
0,941,0.05,940.0
0,943,0.025,942.0
0,942,0.0,942.0
0,939,0.0,942.0
0,938,0.025,940.0
0,938,0.05,940.0
0,942,0.15,940.0
0,941,0.025,942.0
0,940,0.0,941.0
0,940,0.0,941.0
0,934,0.45,941.0
0,937,0.0,935.0
0,935,0.55,939.0
0,937,0.0,933.0
0,935,0.55,939.0
0,934,0.0,933.0
0,932,0.7,935.0
0,933,0.0,931.0
0,940,0.55,931.0
0,939,0.025,941.0
0,938,0.025,940.0
0,934,0.05,940.0
0,923,1.0,935.0
0,914,0.625,923.0
0,909,0.0,918.0
0,906,0.0,916.0
0,902,0.0,904.0
0,903,0.0,904.0
0,915,0.0,904.0
0,943,0.05,919.0
0,977,0.275,942.0
0,1023,1.0,976.0
0,1079,0.0,1064.0
0,1137,0.0,1137.0
0,1177,0.0,1176.0
0,1195,0.025,1197.0
0,1177,0.0,1200.0
0,1117,0.05,1195.0
0,1029,0.025,1163.0
0,954,0.2,1063.0
0,911,1.0,953.0
0,901,0.0,916.0
0,906,0.0,904.0
0,919,0.0,903.0
0,924,0.0,919.0
0,924,0.0,923.0
0,922,0.0,923.0
0,923,0.0,923.0
0,926,0.0,923.0
0,929,0.075,931.0
0,930,0.0,931.0
0,932,0.1,931.0
0,929,0.15,931.0
0,928,0.0,931.0
0,930,0.0,923.0
0,931,0.0,931.0
0,929,0.0,931.0
0,928,0.0,923.0
0,926,0.175,923.0
0,926,0.0,923.0
0,926,0.0,931.0
0,929,0.05,931.0
0,928,0.0,931.0
0,924,0.425,923.0
0,924,0.025,923.0
0,922,0.025,923.0
0,927,0.1,923.0
0,927,0.0,931.0
0,930,0.0,931.0
0,926,0.175,931.0
0,927,0.0,923.0
0,925,0.0,930.0
0,926,0.0,923.0
0,928,0.175,931.0
0,925,0.025,930.0
0,923,0.025,923.0
0,922,0.025,923.0
0,924,0.025,923.0
0,928,0.025,923.0
0,930,0.125,931.0
0,928,0.0,931.0
0,926,0.2,928.0
0,924,0.025,923.0
0,924,0.0,923.0
0,927,0.075,923.0
0,928,0.15,931.0
0,929,0.025,930.0
0,926,0.0,928.0
0,923,0.1,923.0
0,925,0.0,923.0
0,927,0.025,923.0
0,927,0.125,931.0
0,927,0.0,928.0
0,925,0.0,928.0
0,922,0.0,923.0
0,923,0.0,923.0
0,923,0.0,923.0
0,925,0.025,923.0
0,927,0.0,923.0
0,927,0.125,931.0
0,922,0.05,928.0
0,925,0.0,923.0
0,926,0.0,923.0
0,927,0.025,931.0
0,925,0.0,930.0
0,922,0.0,923.0
0,922,0.0,923.0
0,921,0.05,923.0
0,924,0.0,919.0
0,926,0.0,923.0
0,930,0.475,931.0
0,926,0.075,931.0
0,924,0.1,923.0
0,925,0.0,924.0
0,926,0.0,931.0
0,926,0.0,931.0
0,926,0.0,931.0
0,923,0.0,931.0
0,918,0.175,923.0
0,919,0.0,919.0
0,919,0.0,919.0
0,920,0.025,919.0
0,918,0.0,919.0
0,918,0.0,919.0
0,916,0.0,919.0
0,916,0.0,919.0
0,917,0.0,919.0
0,920,0.0,919.0
0,921,0.0,919.0
0,919,0.0,923.0
0,919,0.0,919.0
0,918,0.0,919.0
0,921,0.0,919.0
0,922,0.0,923.0
0,923,0.0,923.0
0,921,0.0,923.0
0,920,0.0,919.0
0,923,0.025,919.0
0,927,0.075,923.0
0,931,0.475,931.0
0,935,0.2,931.0
0,934,0.0,934.0
0,936,0.35,935.0
0,938,0.05,934.0
0,943,0.575,940.0
0,947,0.0,942.0
0,947,0.025,948.0
0,948,0.2,948.0
0,949,0.1,948.0
0,948,0.15,950.0
0,949,0.1,948.0
0,951,0.0,950.0
0,950,0.1,952.0
0,949,0.025,949.0
0,947,0.05,950.0
0,947,0.025,948.0
0,948,0.2,948.0
0,954,0.525,948.0
0,952,0.125,954.0
0,952,0.0,952.0
0,950,0.1,952.0
0,951,0.0,949.0
0,954,0.0,950.0
0,954,0.1,954.0
0,953,0.1,954.0
0,952,0.0,952.0
0,949,0.025,952.0
0,952,0.0,952.0
0,952,0.0,954.0
0,953,0.0,954.0
0,953,0.0,954.0
0,953,0.025,952.0
0,950,0.0,952.0
0,952,0.0,952.0
0,954,0.275,954.0
0,957,0.075,953.0
0,954,0.175,955.0
0,952,0.125,953.0
0,949,0.325,952.0
0,950,0.0,952.0
0,949,0.025,949.0
0,953,0.175,952.0
0,952,0.0,952.0
0,951,0.0,952.0
0,947,0.25,952.0
0,949,0.15,948.0
0,950,0.025,952.0
0,953,0.0,949.0
0,952,0.0,952.0
0,950,0.025,952.0
0,948,0.225,949.0
0,948,0.175,948.0
0,952,0.025,948.0
0,952,0.0,952.0
0,950,0.1,954.0
0,950,0.175,949.0
0,947,0.4,949.0
0,950,0.0,948.0
0,950,0.0,949.0
0,950,0.025,949.0
0,949,0.225,949.0
0,948,0.15,950.0
0,944,0.0,948.0
0,946,0.0,945.0
0,948,0.0,947.0
0,950,0.0,948.0
0,950,0.05,949.0
0,948,0.0,949.0
0,944,0.0,948.0
0,947,0.0,945.0
0,948,0.2,948.0
0,949,0.1,948.0
0,949,0.025,950.0
0,950,0.0,950.0
0,948,0.025,949.0
0,949,0.1,948.0
0,950,0.0,950.0
0,954,0.025,949.0
0,954,0.125,952.0
0,950,0.075,952.0
0,948,0.3,952.0
0,949,0.1,948.0
0,950,0.0,950.0
0,952,0.0,949.0
0,952,0.025,952.0
0,952,0.025,952.0
0,951,0.075,952.0
0,954,0.05,950.0
0,956,0.1,954.0
0,961,0.475,955.0
0,960,0.0,961.0
0,960,0.125,959.0
0,960,0.125,959.0
0,964,0.725,960.0
0,968,0.0,963.0
0,969,0.0,969.0
0,970,0.025,969.0
0,971,0.05,969.0
0,972,0.025,969.0
0,974,0.15,971.0
0,976,0.275,976.0
0,982,0.575,976.0
0,981,0.0,986.0
0,978,0.0,981.0
0,977,0.0,976.0
0,976,0.3,976.0
0,976,0.275,976.0
0,975,0.35,976.0
0,979,0.225,976.0
0,979,0.0,981.0
0,975,0.15,981.0
0,973,0.5,976.0
0,975,0.225,976.0
0,976,0.3,976.0
0,978,0.0,976.0
0,978,0.075,976.0
0,976,0.0,977.0
0,984,0.675,976.0
0,989,0.0,986.0
0,986,0.0,986.0
0,977,0.0,986.0
0,968,0.825,976.0
0,962,0.0,969.0
0,964,0.0,963.0
0,962,0.0,963.0
0,961,0.0,963.0
0,958,0.1,960.0
0,953,0.475,960.0
0,950,0.0,952.0
0,950,0.025,949.0
0,949,0.225,949.0
0,953,0.175,950.0
0,953,0.05,952.0
0,951,0.0,952.0
0,947,0.15,950.0
0,951,0.0,948.0
0,950,0.0,952.0
0,951,0.05,949.0
0,951,0.1,950.0
0,947,0.3,950.0
0,945,0.15,948.0
0,945,0.0,945.0
0,946,0.0,945.0
0,948,0.0,947.0
0,949,0.1,949.0
0,946,0.05,950.0
0,945,0.0,945.0
0,946,0.0,945.0
0,947,0.0,947.0
0,950,0.0,948.0
0,948,0.0,952.0
0,945,0.2,949.0
0,940,0.0,945.0
0,933,0.6,941.0
0,928,0.65,931.0
0,925,0.0,931.0
0,920,0.025,923.0
0,912,0.0,919.0
0,908,0.0,916.0
0,916,0.0,916.0
0,939,0.05,919.0
0,966,0.1,940.0
0,996,0.025,965.0
0,1032,0.025,998.0
0,1080,0.025,1063.0
0,1138,0.0,1137.0
0,1185,0.025,1177.0
0,1213,0.0,1207.0
0,1212,0.025,1160.0
0,1174,0.0,1160.0
0,1099,0.05,1195.0
0,1011,0.0,1159.0
0,945,0.05,1035.0
0,915,0.0,945.0
0,908,0.0,919.0
0,917,0.0,916.0
0,928,0.0,919.0
0,938,0.8,931.0
0,942,0.15,940.0
0,942,0.1,942.0
0,938,0.35,942.0
0,937,0.025,940.0
0,933,0.225,939.0
0,936,0.325,931.0
0,937,0.0,939.0
0,941,0.0,939.0
0,942,0.1,941.0
0,940,0.0,942.0
0,938,0.025,941.0
0,939,0.075,940.0
0,941,0.05,940.0
0,941,0.15,942.0
0,943,0.025,942.0
0,939,0.05,942.0
0,939,0.05,940.0
0,938,0.025,940.0
0,939,0.075,939.0
0,942,0.125,940.0
0,940,0.1,942.0
0,937,0.0,941.0
0,935,0.15,935.0
0,937,0.0,934.0
0,940,0.025,939.0
0,941,0.0,941.0
0,943,0.0,941.0
0,940,0.0,942.0
0,936,0.025,941.0
0,938,0.0,934.0
0,939,0.075,939.0
0,942,0.125,940.0
0,941,0.075,942.0
0,941,0.0,941.0
0,939,0.125,942.0
0,941,0.05,940.0
0,944,0.475,941.0
0,944,0.0,945.0
0,944,0.0,945.0
0,941,0.0,945.0
0,936,0.45,941.0
0,939,0.0,934.0
0,940,0.05,940.0
0,943,0.525,941.0
0,943,0.025,942.0
0,941,0.0,942.0
0,939,0.125,941.0
0,937,0.0,940.0
0,941,0.8,935.0
0,941,0.025,941.0
0,942,0.1,941.0
0,941,0.0,942.0
0,939,0.125,941.0
0,942,0.125,940.0
0,943,0.25,942.0
0,944,0.0,942.0
0,943,0.0,945.0
0,943,0.0,942.0
0,942,0.0,942.0
0,943,0.0,942.0
0,947,0.0,942.0
0,947,0.025,948.0
0,946,0.0,948.0
0,944,0.0,945.0
0,940,0.0,945.0
0,942,0.025,941.0
0,945,0.625,942.0
0,945,0.0,945.0
0,945,0.0,945.0
0,943,0.0,945.0
0,940,0.0,942.0
0,939,0.025,941.0
0,945,0.7,940.0
0,944,0.0,945.0
0,942,0.0,945.0
0,942,0.0,942.0
0,938,0.0,942.0
0,935,0.05,939.0
0,940,0.5,934.0
0,937,0.0,941.0
0,939,0.45,935.0
0,938,0.025,940.0
0,935,0.05,939.0
0,936,0.3,934.0
0,939,0.0,934.0
0,943,0.575,940.0
0,941,0.0,942.0
0,940,0.0,941.0
0,938,0.025,941.0
0,940,0.1,939.0
0,943,0.5,941.0
0,946,0.05,942.0
0,945,0.0,947.0
0,943,0.075,945.0
0,942,0.0,941.0
0,943,0.075,942.0
0,948,0.025,942.0
0,953,0.25,949.0
0,956,0.025,952.0
0,957,0.025,955.0
0,955,0.1,955.0
0,957,1.0,954.0
0,962,1.0,957.0
0,962,1.0,960.0
0,964,1.0,960.0
0,963,0.2,963.0
0,963,0.125,963.0
0,965,0.2,963.0
0,970,0.55,963.0
0,972,0.65,970.0
0,971,0.175,976.0
0,972,0.15,972.0
0,967,0.425,971.0
0,969,0.075,965.0
0,971,0.2,969.0
0,971,0.2,972.0
0,971,0.2,972.0
0,969,0.2,971.0
0,966,0.125,969.0
0,968,0.075,965.0
0,970,0.125,969.0
0,970,0.125,971.0
0,969,0.175,971.0
0,971,0.25,969.0
0,968,0.275,971.0
0,967,0.1,969.0
0,969,0.075,969.0
0,971,0.35,969.0
0,970,0.375,968.0
0,968,0.0,969.0
0,967,0.05,969.0
0,968,0.0,969.0
0,969,0.0,967.0
0,972,0.35,969.0
0,969,0.425,976.0
0,967,0.2,969.0
0,965,0.225,969.0
0,965,0.1,963.0
0,970,0.1,965.0
0,970,0.125,969.0
0,969,0.2,969.0
0,967,0.2,969.0
0,967,0.15,965.0
0,967,0.05,965.0
0,968,0.025,965.0
0,971,0.275,967.0
0,967,0.4,968.0
0,968,0.025,967.0
0,963,0.65,967.0
0,964,0.225,961.0
0,963,0.1,963.0
0,967,0.3,963.0
0,966,0.025,968.0
0,965,0.025,965.0
0,960,0.05,963.0
0,962,0.475,960.0
0,961,0.05,963.0
0,966,0.725,960.0
0,963,0.0,965.0
0,962,0.025,963.0
0,960,0.125,963.0
0,962,0.5,959.0
0,965,0.05,963.0
0,968,0.0,963.0
0,966,0.15,967.0
0,964,0.075,965.0
0,962,0.0,963.0
0,962,0.0,960.0
0,964,0.0,963.0
0,965,0.0,963.0
0,965,0.0,965.0
0,962,0.0,965.0
0,960,0.1,962.0
0,962,0.475,960.0
0,963,0.0,962.0
0,965,0.0,962.0
0,963,0.025,965.0
0,963,0.025,963.0
0,962,0.15,963.0
0,963,0.0,960.0
0,967,0.275,963.0
0,967,0.0,968.0
0,970,0.025,968.0
0,970,0.0,969.0
0,972,0.15,969.0
0,973,0.175,967.0
0,976,0.5,976.0
0,980,0.475,976.0
0,982,0.9,981.0
0,979,0.125,981.0
0,976,0.15,981.0
0,980,0.225,976.0
0,981,0.25,981.0
0,985,0.325,981.0
0,984,0.05,986.0
0,985,0.05,986.0
0,981,0.05,986.0
0,983,0.075,981.0
0,987,0.1,986.0
0,990,0.125,986.0
0,991,0.1,986.0
0,991,0.05,986.0
0,988,0.0,986.0
0,986,0.0,986.0
0,986,0.0,986.0
0,988,0.0,986.0
0,987,0.0,986.0
0,986,0.0,986.0
0,985,0.0,986.0
0,987,0.0,986.0
0,990,0.025,986.0
0,997,0.125,986.0
0,1000,0.225,1032.0
0,996,0.05,940.0
0,984,0.025,1000.0
0,980,0.05,986.0
0,977,0.025,981.0
0,973,0.55,976.0
0,973,0.575,976.0
0,969,0.75,976.0
0,965,0.2,969.0
0,962,0.1,963.0
0,963,0.0,963.0
0,965,0.0,963.0
0,966,0.075,963.0
0,964,0.025,965.0
0,960,0.5,963.0
0,963,0.6,962.0
0,964,0.025,963.0
0,965,0.0,963.0
0,965,0.0,965.0
0,959,0.6,965.0
0,958,0.2,960.0
0,957,0.225,960.0
0,959,0.2,955.0
0,962,0.525,960.0
0,959,0.075,963.0
0,959,0.025,959.0
0,955,0.35,959.0
0,958,0.7,950.0
0,958,0.0,959.0
0,957,0.1,959.0
0,959,0.2,959.0
0,955,0.225,959.0
0,953,0.45,954.0
0,951,0.125,950.0
0,946,0.425,952.0
0,942,0.125,945.0
0,936,0.025,942.0
0,933,0.0,939.0
0,923,1.0,931.0
0,919,0.325,923.0
0,915,0.0,919.0
0,919,0.0,919.0
0,939,0.025,919.0
0,959,0.95,940.0
0,978,1.0,959.0
0,997,0.1,976.0
0,1017,0.025,984.0
0,1043,0.1,944.0
0,1082,0.05,1101.0
0,1127,0.175,1137.0
0,1165,0.05,1165.0
0,1197,0.0,1195.0
0,1220,0.0,1200.0
0,1230,0.0,1212.0
0,1225,0.05,1242.0
0,1186,0.0,1230.0
0,1103,0.0,1213.0
0,1002,0.075,1018.0
0,940,0.025,996.0
0,923,1.0,941.0
0,927,0.075,923.0
0,936,1.0,931.0
0,944,0.0,939.0
0,950,0.0,945.0
0,947,0.175,952.0
0,949,0.15,948.0
0,948,0.125,950.0
0,947,0.025,949.0
0,945,0.15,948.0
0,948,0.0,945.0
0,948,0.175,949.0
0,950,0.0,949.0
0,948,0.0,949.0
0,946,0.025,949.0
0,946,0.05,945.0
0,946,0.025,945.0
0,948,0.0,945.0
0,949,0.1,949.0
0,948,0.125,950.0
0,948,0.175,949.0
0,944,0.0,949.0
0,945,0.0,943.0
0,945,0.0,945.0
0,947,0.0,945.0
0,947,0.025,948.0
0,944,0.0,948.0
0,942,0.0,945.0
0,943,0.0,942.0
0,945,0.025,942.0
0,944,0.15,945.0
0,947,0.05,945.0
0,946,0.05,948.0
0,942,0.6,945.0
0,945,0.025,942.0
0,947,0.0,945.0
0,948,0.2,948.0
0,951,0.0,948.0
0,948,0.15,950.0
0,945,0.2,948.0
0,944,0.0,945.0
0,946,0.025,945.0
0,946,0.0,945.0
0,949,0.0,945.0
0,946,0.075,950.0
0,946,0.0,945.0
0,946,0.0,946.0
0,946,0.0,946.0
0,947,0.0,946.0
0,947,0.0,948.0
0,944,0.0,948.0
0,942,0.125,945.0
0,944,0.0,942.0
0,947,0.0,945.0
0,948,0.2,948.0
0,947,0.025,948.0
0,945,0.15,948.0
0,945,0.025,945.0
0,946,0.025,945.0
0,946,0.0,946.0
0,948,0.0,946.0
0,949,0.05,948.0
0,948,0.125,950.0
0,946,0.05,948.0
0,947,0.025,946.0
0,949,0.1,948.0
0,950,0.0,950.0
0,949,0.0,949.0
0,948,0.125,950.0
0,946,0.05,948.0
0,945,0.05,946.0
0,946,0.0,945.0
0,944,0.0,946.0
0,947,0.0,945.0
0,944,0.0,948.0
0,945,0.0,945.0
0,943,0.0,945.0
0,944,0.0,942.0
0,947,0.0,945.0
0,945,0.15,948.0
0,943,0.075,945.0
0,940,0.1,942.0
0,942,0.075,941.0
0,944,0.575,942.0
0,945,0.0,945.0
0,945,0.0,945.0
0,943,0.0,945.0
0,942,0.0,942.0
0,945,0.025,942.0
0,947,0.0,945.0
0,948,0.0,948.0
0,948,0.0,948.0
0,948,0.0,948.0
0,947,0.025,948.0
0,947,0.025,948.0
0,954,0.625,948.0
0,955,0.15,953.0
0,955,0.125,954.0
0,956,0.05,954.0
0,954,0.25,955.0
0,957,0.2,953.0
0,961,0.575,959.0
0,964,0.525,962.0
0,959,0.575,963.0
0,962,0.525,959.0
0,960,0.0,963.0
0,961,0.325,962.0
0,963,0.4,962.0
0,967,0.0,963.0
0,967,0.0,967.0
0,965,0.0,967.0
0,962,0.125,965.0
0,962,0.0,963.0
0,965,0.0,963.0
0,968,0.35,965.0
0,967,0.225,967.0
0,966,0.025,967.0
0,965,0.0,965.0
0,966,0.025,965.0
0,966,0.025,965.0
0,969,0.0,965.0
0,968,0.075,969.0
0,968,0.075,967.0
0,966,0.05,967.0
0,968,0.1,965.0
0,968,0.075,967.0
0,969,0.0,967.0
0,969,0.0,969.0
0,967,0.0,969.0
0,964,0.025,967.0
0,966,0.1,963.0
0,967,0.075,965.0
0,965,0.025,967.0
0,965,0.025,965.0
0,965,0.025,965.0
0,961,0.25,965.0
0,962,0.375,962.0
0,963,0.025,963.0
0,962,0.025,963.0
0,965,0.0,963.0
0,963,0.075,965.0
0,958,0.35,962.0
0,960,0.2,959.0
0,961,0.325,962.0
0,963,0.425,962.0
0,962,0.0,963.0
0,961,0.0,963.0
0,958,0.15,962.0
0,961,0.4,959.0
0,963,0.275,962.0
0,963,0.0,962.0
0,963,0.0,962.0
0,963,0.0,963.0
0,960,0.0,963.0
0,956,0.1,962.0
0,957,0.125,955.0
0,961,0.55,959.0
0,957,0.175,963.0
0,956,0.05,959.0
0,954,0.25,955.0
0,955,0.15,953.0
0,956,0.05,955.0
0,958,0.25,955.0
0,955,0.125,960.0
0,954,0.225,955.0
0,952,0.175,955.0
0,954,0.15,952.0
0,956,0.1,955.0
0,956,0.05,955.0
0,958,0.25,955.0
0,957,0.05,959.0
0,956,0.05,955.0
0,955,0.15,955.0
0,956,0.05,954.0
0,957,0.1,955.0
0,957,0.05,955.0
0,957,0.05,955.0
0,955,0.125,955.0
0,957,0.1,955.0
0,958,0.1,955.0
0,960,0.2,957.0
0,958,0.0,962.0
0,959,0.025,960.0
0,957,0.025,959.0
0,957,0.0,955.0
0,961,0.525,955.0
0,962,0.175,963.0
0,961,0.0,963.0
0,960,0.025,963.0
0,958,0.0,962.0
0,960,0.2,960.0
0,960,0.1,962.0
0,966,0.8,962.0
0,967,0.0,965.0
0,966,0.0,965.0
0,966,0.0,965.0
0,968,0.0,965.0
0,971,0.15,967.0
0,974,0.375,969.0
0,976,0.325,976.0
0,975,0.375,976.0
0,974,0.45,976.0
0,973,0.525,976.0
0,977,0.15,976.0
0,980,0.1,976.0
0,981,0.05,981.0
0,980,0.075,981.0
0,980,0.05,981.0
0,981,0.0,981.0
0,984,0.225,980.0
0,987,0.025,986.0
0,989,0.025,986.0
0,986,0.025,986.0
0,980,0.0,986.0
0,980,0.0,981.0
0,981,0.0,981.0
0,983,0.2,980.0
0,986,0.0,986.0
0,984,0.0,986.0
0,981,0.0,986.0
0,984,0.0,980.0
0,989,0.1,986.0
0,990,0.025,986.0
0,985,0.05,986.0
0,976,0.075,986.0
0,970,0.85,976.0
0,970,0.0,969.0
0,970,0.0,969.0
0,966,0.1,969.0
0,962,0.275,965.0
0,960,0.0,963.0
0,956,0.1,960.0
0,953,0.325,955.0
0,954,0.125,952.0
0,956,0.1,955.0
0,954,0.25,955.0
0,952,0.175,954.0
0,950,0.0,952.0
0,949,0.0,949.0
0,950,0.0,950.0
0,951,0.025,949.0
0,952,0.025,950.0
0,949,0.125,952.0
0,948,0.125,950.0
0,950,0.0,948.0
0,949,0.0,949.0
0,950,0.0,950.0
0,949,0.0,949.0
0,946,0.1,950.0
0,945,0.0,946.0
0,946,0.0,945.0
0,947,0.0,946.0
0,951,0.025,948.0
0,952,0.0,952.0
0,951,0.025,952.0
0,950,0.125,950.0
0,948,0.125,949.0
0,948,0.0,948.0
0,945,0.2,948.0
0,936,0.225,945.0
0,928,0.0,939.0
0,922,0.0,931.0
0,923,0.05,919.0
0,923,0.0,923.0
0,916,0.275,923.0
0,907,0.0,919.0
0,904,0.0,917.0
0,914,0.0,917.0
0,936,0.0,919.0
0,959,0.225,939.0
0,991,1.0,960.0
0,1023,0.0,986.0
0,1071,0.025,1079.0
0,1120,0.025,982.0
0,1166,0.0,1170.0
0,1189,0.0,1195.0
0,1195,0.025,1103.0
0,1162,0.0,1200.0
0,1088,0.025,1195.0
0,1005,0.0,1137.0
0,940,0.025,940.0
0,914,1.0,941.0
0,914,0.0,919.0
0,928,0.0,919.0
0,935,0.35,931.0
0,935,0.225,934.0
0,937,0.025,934.0
0,934,0.7,939.0
0,938,0.05,935.0
0,936,0.025,939.0
0,938,0.025,939.0
0,936,0.025,939.0
0,934,0.0,939.0
0,936,0.35,935.0
0,938,0.0,934.0
0,938,0.075,939.0
0,932,0.55,939.0
0,935,0.05,931.0
0,935,0.225,934.0
0,936,0.3,934.0
0,936,0.0,934.0
0,937,0.0,939.0
0,933,0.0,939.0
0,934,0.125,931.0
0,934,0.275,935.0
0,937,0.025,935.0
0,939,0.025,939.0
0,937,0.025,940.0
0,935,0.0,939.0
0,935,0.225,934.0
0,937,0.025,934.0
0,938,0.075,939.0
0,941,0.125,939.0
0,941,0.125,942.0
0,939,0.175,942.0
0,935,0.0,940.0
0,937,0.025,937.0
0,938,0.05,939.0
0,940,0.125,939.0
0,940,0.05,941.0
0,937,0.025,941.0
0,934,0.2,939.0
0,931,0.85,935.0
0,934,0.1,931.0
0,935,0.375,935.0
0,934,0.0,937.0
0,932,0.7,935.0
0,932,0.0,931.0
0,932,0.075,931.0
0,934,0.05,931.0
0,934,0.275,935.0
0,935,0.375,935.0
0,933,0.425,934.0
0,932,0.3,931.0
0,934,0.05,931.0
0,935,0.375,935.0
0,937,0.025,934.0
0,940,0.5,939.0
0,938,0.075,941.0
0,934,0.025,940.0
0,938,0.05,935.0
0,937,0.05,940.0
0,940,0.5,939.0
0,939,0.05,941.0
0,938,0.05,940.0
0,933,0.425,940.0
0,934,0.125,931.0
0,936,0.35,935.0
0,940,0.025,934.0
0,939,0.05,940.0
0,939,0.05,940.0
0,934,0.05,940.0
0,936,0.35,935.0
0,937,0.0,934.0
0,938,0.275,939.0
0,934,0.025,939.0
0,935,0.225,935.0
0,933,0.425,937.0
0,934,0.125,934.0
0,934,0.225,935.0
0,933,0.55,935.0
0,930,0.575,934.0
0,928,0.0,931.0
0,929,0.025,928.0
0,933,0.0,928.0
0,933,0.0,935.0
0,935,0.175,934.0
0,937,0.025,934.0
0,933,0.425,939.0
0,930,0.575,934.0
0,929,0.0,931.0
0,932,0.1,928.0
0,935,0.275,931.0
0,935,0.15,937.0
0,934,0.0,937.0
0,935,0.225,935.0
0,937,0.025,934.0
0,939,0.325,939.0
0,943,0.575,940.0
0,947,0.025,942.0
0,944,0.0,948.0
0,947,0.0,945.0
0,948,0.0,948.0
0,951,0.025,948.0
0,951,0.025,950.0
0,954,0.05,950.0
0,952,0.175,952.0
0,951,0.025,952.0
0,951,0.025,950.0
0,953,0.05,950.0
0,953,0.075,954.0
0,956,0.025,952.0
0,955,0.125,955.0
0,953,0.225,954.0
0,954,0.125,952.0
0,958,0.4,952.0
0,959,0.025,960.0
0,958,0.0,960.0
0,956,0.025,960.0
0,955,0.075,954.0
0,956,0.05,953.0
0,958,0.2,955.0
0,960,0.2,960.0
0,961,0.25,960.0
0,960,0.025,960.0
0,958,0.0,960.0
0,958,0.0,960.0
0,958,0.0,960.0
0,955,0.1,960.0
0,959,0.35,954.0
0,957,0.025,960.0
0,956,0.025,955.0
0,955,0.1,955.0
0,956,0.075,953.0
0,956,0.025,955.0
0,958,0.2,955.0
0,955,0.1,960.0
0,953,0.3,956.0
0,953,0.075,952.0
0,955,0.15,952.0
0,956,0.025,955.0
0,955,0.125,955.0
0,952,0.45,953.0
0,950,0.0,952.0
0,952,0.0,949.0
0,954,0.0,952.0
0,955,0.25,953.0
0,952,0.45,956.0
0,951,0.025,952.0
0,946,0.2,950.0
0,946,0.1,946.0
0,950,0.025,946.0
0,950,0.0,952.0
0,951,0.025,949.0
0,949,0.175,950.0
0,949,0.025,950.0
0,949,0.025,950.0
0,950,0.0,950.0
0,950,0.1,949.0
0,949,0.175,949.0
0,948,0.125,950.0
0,945,0.2,948.0
0,944,0.025,945.0
0,945,0.0,945.0
0,947,0.0,945.0
0,949,0.1,948.0
0,948,0.125,950.0
0,945,0.0,948.0
0,944,0.025,945.0
0,945,0.0,945.0
0,946,0.0,945.0
0,948,0.025,946.0
0,946,0.025,948.0
0,943,0.375,946.0
0,942,0.0,942.0
0,943,0.0,942.0
0,946,0.0,942.0
0,945,0.2,946.0
0,945,0.0,945.0
0,944,0.0,945.0
0,944,0.0,945.0
0,946,0.0,945.0
0,947,0.025,946.0
0,947,0.025,948.0
0,944,0.0,948.0
0,944,0.0,945.0
0,944,0.0,945.0
0,945,0.0,945.0
0,949,0.0,945.0
0,947,0.075,950.0
0,945,0.075,948.0
0,945,0.0,945.0
0,947,0.0,945.0
0,946,0.05,948.0
0,948,0.025,946.0
0,947,0.0,948.0
0,949,0.1,948.0
0,949,0.025,950.0
0,952,0.0,950.0
0,954,0.125,952.0
0,956,0.05,952.0
0,958,0.25,955.0
0,956,0.05,960.0
0,958,0.175,955.0
0,962,0.6,960.0
0,964,0.025,963.0
0,966,0.125,963.0
0,967,0.05,965.0
0,967,0.0,965.0
0,966,0.0,967.0
0,968,0.0,965.0
0,971,0.15,967.0
0,972,0.125,969.0
0,975,0.175,967.0
0,973,0.525,976.0
0,972,0.65,976.0
0,971,0.075,969.0
0,970,0.025,972.0
0,967,0.075,970.0
0,969,0.075,967.0
0,968,0.075,967.0
0,968,0.075,967.0
0,966,0.075,967.0
0,970,0.125,965.0
0,972,0.075,970.0
0,974,0.1,971.0
0,977,0.025,976.0
0,972,0.575,980.0
0,964,0.3,971.0
0,961,0.3,963.0
0,960,0.025,960.0
0,959,0.025,960.0
0,957,0.025,960.0
0,953,0.375,955.0
0,953,0.075,952.0
0,952,0.0,952.0
0,953,0.1,952.0
0,946,0.175,953.0
0,944,0.3,946.0
0,942,0.0,945.0
0,937,0.025,942.0
0,941,0.5,939.0
0,943,0.45,941.0
0,944,0.0,942.0
0,942,0.0,945.0
0,939,0.0,942.0
0,943,0.575,940.0
0,943,0.0,942.0
0,945,0.0,942.0
0,944,0.0,945.0
0,941,0.0,945.0
0,937,0.2,941.0
0,936,0.0,939.0
0,940,0.0,939.0
0,940,0.05,941.0
0,941,0.025,941.0
0,938,0.325,941.0
0,937,0.05,939.0
0,938,0.275,939.0
0,940,0.125,939.0
0,940,0.05,941.0
0,941,0.025,940.0
0,942,0.075,941.0
0,941,0.025,942.0
0,939,0.175,941.0
0,938,0.05,940.0
0,933,0.425,940.0
0,925,0.95,934.0
0,916,0.5,923.0
0,913,0.0,919.0
0,905,0.0,916.0
0,898,0.0,904.0
0,899,0.0,901.0
0,912,0.0,901.0
0,933,0.175,916.0
0,956,1.0,934.0
0,989,1.0,955.0
0,1027,0.325,986.0
0,1078,0.025,1063.0
0,1131,0.125,1137.0
0,1175,0.85,1165.0
0,1195,0.0,1195.0
0,1200,0.0,1200.0
0,1172,0.0,1174.0
0,1110,0.325,1195.0
0,1026,0.25,1163.0
0,958,0.675,1063.0
0,920,1.0,960.0
0,904,0.0,919.0
0,908,0.0,904.0
0,919,0.0,916.0
0,926,0.0,919.0
0,930,0.075,923.0
0,926,0.125,931.0
0,927,0.025,923.0
0,930,0.025,930.0
0,928,0.0,931.0
0,932,0.15,928.0
0,932,0.0,931.0
0,929,0.15,931.0
0,932,0.1,928.0
0,932,0.025,931.0
0,934,0.05,931.0
0,934,0.225,935.0
0,932,0.675,935.0
0,930,0.05,931.0
0,930,0.0,928.0
0,933,0.0,931.0
0,933,0.0,935.0
0,931,0.525,934.0
0,929,0.0,931.0
0,929,0.0,928.0
0,931,0.0,928.0
0,933,0.0,931.0
0,936,0.3,934.0
0,933,0.0,939.0
0,931,0.525,934.0
0,927,0.1,931.0
0,926,0.125,923.0
0,930,0.05,930.0
0,930,0.0,931.0
0,932,0.1,931.0
0,930,0.0,934.0
0,927,0.1,930.0
0,926,0.0,923.0
0,930,0.075,923.0
0,931,0.0,931.0
0,930,0.0,931.0
0,927,0.1,931.0
0,923,0.025,923.0
0,927,0.15,923.0
0,929,0.3,931.0
0,931,0.0,931.0
0,930,0.0,931.0
0,930,0.0,931.0
0,929,0.0,931.0
0,927,0.1,931.0
0,929,0.025,923.0
0,930,0.0,931.0
0,931,0.0,931.0
0,927,0.125,930.0
0,926,0.125,923.0
0,924,0.025,930.0
0,927,0.025,923.0
0,929,0.25,931.0
0,929,0.0,931.0
0,928,0.0,931.0
0,924,0.225,926.0
0,927,0.125,923.0
0,927,0.1,931.0
0,929,0.025,930.0
0,930,0.0,931.0
0,928,0.0,931.0
0,922,0.7,926.0
0,926,0.125,919.0
0,928,0.025,931.0
0,929,0.0,930.0
0,929,0.0,930.0
0,928,0.0,930.0
0,925,0.125,926.0
0,927,0.05,923.0
0,927,0.125,930.0
0,929,0.025,930.0
0,926,0.0,930.0
0,924,0.025,923.0
0,921,0.0,923.0
0,919,0.025,919.0
0,921,0.0,919.0
0,919,0.0,923.0
0,920,0.0,919.0
0,918,0.0,919.0
0,920,0.0,919.0
0,917,0.0,919.0
0,920,0.0,919.0
0,920,0.0,919.0
0,921,0.0,919.0
0,920,0.0,923.0
0,918,0.0,919.0
0,919,0.0,919.0
0,918,0.0,919.0
0,924,0.0,919.0
0,923,0.0,923.0
0,925,0.0,923.0
0,923,0.0,931.0
0,925,0.0,923.0
0,929,0.025,923.0
0,932,0.0,931.0
0,934,0.05,934.0
0,932,0.675,935.0
0,932,0.0,931.0
0,932,0.075,934.0
0,936,0.2,934.0
0,939,0.0,939.0
0,942,0.125,940.0
0,942,0.1,942.0
0,943,0.05,942.0
0,944,0.0,942.0
0,948,0.025,945.0
0,951,0.025,948.0
0,952,0.025,952.0
0,950,0.15,954.0
0,951,0.125,949.0
0,953,0.05,950.0
0,956,0.225,953.0
0,959,0.3,955.0
0,959,0.025,960.0
0,959,0.025,960.0
0,958,0.0,959.0
0,960,0.2,959.0
0,959,0.025,960.0
0,961,0.35,959.0
0,961,0.0,960.0
0,962,0.175,960.0
0,959,0.0,963.0
0,958,0.0,959.0
0,962,0.575,960.0
0,962,0.0,963.0
0,961,0.0,963.0
0,959,0.075,960.0
0,957,0.05,959.0
0,959,0.175,955.0
0,960,0.175,959.0
0,961,0.25,959.0
0,961,0.0,960.0
0,958,0.1,960.0
0,957,0.0,960.0
0,957,0.0,955.0
0,959,0.15,955.0
0,961,0.2,959.0
0,960,0.025,960.0
0,958,0.0,960.0
0,959,0.05,960.0
0,955,0.125,959.0
0,959,0.35,956.0
0,960,0.125,959.0
0,960,0.05,960.0
0,958,0.0,960.0
0,957,0.0,960.0
0,957,0.0,959.0
0,957,0.0,959.0
0,961,0.15,959.0
0,961,0.0,960.0
0,957,0.175,960.0
0,955,0.1,959.0
0,956,0.025,953.0
0,956,0.025,955.0
0,958,0.075,955.0
0,954,0.275,960.0
0,953,0.15,952.0
0,952,0.025,952.0
0,953,0.1,950.0
0,955,0.45,953.0
0,958,0.275,956.0
0,955,0.1,960.0
0,956,0.05,956.0
0,953,0.325,955.0
0,954,0.125,952.0
0,956,0.025,952.0
0,959,0.3,955.0
0,959,0.025,959.0
0,958,0.0,959.0
0,955,0.0,959.0
0,955,0.05,956.0
0,957,0.1,956.0
0,960,0.325,955.0
0,956,0.05,960.0
0,955,0.075,955.0
0,953,0.3,956.0
0,953,0.075,952.0
0,955,0.15,952.0
0,957,0.1,956.0
0,956,0.025,955.0
0,954,0.025,955.0
0,953,0.15,953.0
0,954,0.125,952.0
0,955,0.1,953.0
0,959,0.35,956.0
0,957,0.0,959.0
0,954,0.25,955.0
0,954,0.15,953.0
0,953,0.15,953.0
0,955,0.15,952.0
0,958,0.275,955.0
0,959,0.05,959.0
0,961,0.2,959.0
0,960,0.025,960.0
0,963,0.425,960.0
0,966,0.025,963.0
0,968,0.025,965.0
0,970,0.025,967.0
0,971,0.0,970.0
0,970,0.0,970.0
0,972,0.075,970.0
0,975,0.05,971.0
0,976,0.25,976.0
0,977,0.1,976.0
0,977,0.075,976.0
0,978,0.1,976.0
0,978,0.075,976.0
0,982,0.325,976.0
0,985,0.0,986.0
0,980,0.025,986.0
0,980,0.0,981.0
0,979,0.1,981.0
0,977,0.125,981.0
0,978,0.1,976.0
0,982,0.275,976.0
0,982,0.1,986.0
0,981,0.0,986.0
0,978,0.0,980.0
0,980,0.075,977.0
0,984,0.0,981.0
0,991,0.25,986.0
0,992,0.05,986.0
0,989,0.05,986.0
0,978,0.275,986.0
0,972,0.025,976.0
0,972,0.025,971.0
0,972,0.025,975.0
0,969,0.05,975.0
0,966,0.075,967.0
0,962,0.025,965.0
0,960,0.025,963.0
0,958,0.05,960.0
0,958,0.0,959.0
0,957,0.05,959.0
0,954,0.275,955.0
0,953,0.15,953.0
0,954,0.125,952.0
0,957,0.1,953.0
0,957,0.0,955.0
0,956,0.025,955.0
0,953,0.3,955.0
0,952,0.0,952.0
0,951,0.025,952.0
0,953,0.05,950.0
0,953,0.05,953.0
0,953,0.075,952.0
0,951,0.025,952.0
0,950,0.1,950.0
0,950,0.15,949.0
0,952,0.1,949.0
0,953,0.05,954.0
0,954,0.0,953.0
0,950,0.35,953.0
0,950,0.0,952.0
0,951,0.075,949.0
0,952,0.025,950.0
0,954,0.0,954.0
0,955,0.25,953.0
0,950,0.425,955.0
0,948,0.075,952.0
0,942,0.5,948.0
0,938,0.0,942.0
0,933,0.425,940.0
0,927,0.775,931.0
0,924,0.0,931.0
0,915,0.15,923.0
0,911,0.0,919.0
0,915,0.0,919.0
0,936,0.0,919.0
0,962,0.3,939.0
0,991,0.6,963.0
0,1023,0.025,986.0
0,1071,0.05,1071.0
0,1130,0.875,982.0
0,1180,0.275,1165.0
0,1212,0.95,1195.0
0,1223,0.275,1212.0
0,1200,0.2,1230.0
0,1137,0.0,1200.0
0,1049,0.7,1185.0
0,974,1.0,1112.0
0,928,1.0,976.0
0,913,0.825,931.0
0,921,0.0,919.0
0,934,0.075,923.0
0,942,0.9,935.0
0,944,0.0,942.0
0,945,0.0,945.0
0,941,0.0,945.0
0,939,0.175,941.0
0,940,0.05,940.0
0,940,0.05,941.0
0,942,0.0,940.0
0,943,0.175,943.0
0,940,0.0,942.0
0,940,0.05,940.0
0,939,0.05,940.0
0,942,0.025,940.0
0,943,0.25,943.0
0,942,0.0,942.0
0,941,0.0,942.0
0,941,0.025,941.0
0,941,0.075,942.0
0,941,0.075,942.0
0,945,0.525,941.0
0,942,0.0,945.0
0,939,0.0,942.0
0,939,0.05,940.0
0,937,0.025,940.0
0,937,0.15,939.0
0,941,0.45,939.0
0,940,0.025,941.0
0,939,0.05,940.0
0,939,0.05,940.0
0,939,0.05,940.0
0,940,0.05,940.0
0,941,0.0,940.0
0,940,0.075,941.0
0,939,0.025,940.0
0,937,0.025,940.0
0,938,0.275,939.0
0,943,0.525,939.0
0,944,0.0,942.0
0,942,0.0,945.0
0,942,0.0,942.0
0,942,0.125,943.0
0,940,0.0,942.0
0,939,0.025,940.0
0,942,0.025,940.0
0,940,0.05,942.0
0,941,0.0,940.0
0,937,0.325,941.0
0,938,0.275,939.0
0,940,0.1,939.0
0,942,0.0,940.0
0,942,0.025,942.0
0,942,0.1,942.0
0,940,0.0,942.0
0,939,0.025,940.0
0,942,0.025,940.0
0,944,0.575,942.0
0,942,0.0,945.0
0,941,0.0,942.0
0,940,0.0,941.0
0,940,0.025,940.0
0,940,0.025,940.0
0,942,0.0,940.0
0,943,0.175,942.0
0,941,0.0,942.0
0,941,0.0,941.0
0,941,0.05,941.0
0,941,0.05,941.0
0,944,0.45,941.0
0,941,0.0,945.0
0,941,0.0,941.0
0,939,0.0,941.0
0,939,0.05,940.0
0,941,0.05,940.0
0,942,0.1,941.0
0,941,0.125,942.0
0,940,0.0,941.0
0,937,0.0,940.0
0,939,0.325,939.0
0,941,0.05,940.0
0,943,0.025,941.0
0,944,0.0,942.0
0,940,0.0,945.0
0,941,0.0,940.0
0,940,0.075,941.0
0,942,0.0,940.0
0,942,0.025,942.0
0,939,0.075,942.0
0,940,0.05,940.0
0,938,0.05,940.0
0,940,0.025,940.0
0,941,0.025,940.0
0,943,0.0,941.0
0,943,0.0,942.0
0,944,0.0,942.0
0,942,0.0,945.0
0,943,0.0,942.0
0,948,0.025,942.0
0,951,0.025,948.0
0,952,0.025,952.0
0,952,0.025,954.0
0,952,0.025,954.0
0,954,0.025,954.0
0,959,0.775,955.0
0,964,0.8,959.0
0,962,0.3,963.0
0,962,0.0,963.0
0,963,0.0,963.0
0,963,0.025,963.0
0,964,0.025,963.0
0,968,0.4,963.0
0,965,0.15,967.0
0,962,0.15,965.0
0,961,0.0,963.0
0,958,0.1,960.0
0,963,0.7,959.0
0,964,0.025,963.0
0,963,0.075,963.0
0,963,0.025,963.0
0,962,0.075,963.0
0,962,0.0,963.0
0,963,0.0,963.0
0,964,0.025,963.0
0,964,0.025,963.0
0,961,0.25,963.0
0,960,0.05,960.0
0,959,0.025,960.0
0,962,0.4,959.0
0,964,0.025,963.0
0,966,0.1,963.0
0,963,0.025,967.0
0,962,0.05,963.0
0,961,0.0,963.0
0,962,0.175,960.0
0,962,0.0,963.0
0,962,0.0,963.0
0,962,0.0,963.0
0,959,0.0,963.0
0,956,0.05,959.0
0,958,0.175,955.0
0,961,0.35,959.0
0,959,0.075,962.0
0,959,0.0,959.0
0,955,0.0,959.0
0,956,0.05,955.0
0,956,0.025,955.0
0,957,0.025,955.0
0,957,0.0,955.0
0,952,0.575,955.0
0,953,0.125,952.0
0,955,0.45,953.0
0,956,0.025,956.0
0,956,0.025,955.0
0,956,0.05,958.0
0,956,0.025,955.0
0,954,0.0,955.0
0,953,0.025,953.0
0,953,0.1,952.0
0,956,0.1,952.0
0,956,0.025,955.0
0,955,0.0,954.0
0,953,0.05,956.0
0,951,0.05,952.0
0,951,0.025,950.0
0,954,0.0,950.0
0,953,0.05,953.0
0,953,0.1,952.0
0,950,0.0,952.0
0,949,0.0,949.0
0,952,0.0,950.0
0,953,0.0,954.0
0,949,0.2,953.0
0,949,0.025,950.0
0,948,0.175,950.0
0,949,0.05,948.0
0,952,0.0,950.0
0,954,0.125,954.0
0,952,0.175,953.0
0,952,0.0,952.0
0,951,0.0,954.0
0,953,0.05,950.0
0,955,0.025,953.0
0,958,0.2,956.0
0,956,0.05,959.0
0,957,0.025,955.0
0,957,0.0,959.0
0,960,0.1,959.0
0,964,0.6,959.0
0,967,0.275,963.0
0,967,0.0,967.0
0,966,0.0,967.0
0,967,0.0,965.0
0,968,0.0,967.0
0,969,0.0,967.0
0,972,0.15,967.0
0,972,0.025,972.0
0,972,0.0,972.0
0,973,0.0,972.0
0,975,0.2,972.0
0,978,0.05,976.0
0,982,0.3,976.0
0,982,0.0,986.0
0,980,0.0,981.0
0,978,0.0,981.0
0,976,0.1,976.0
0,977,0.15,976.0
0,979,0.05,976.0
0,982,0.35,977.0
0,980,0.025,981.0
0,979,0.0,980.0
0,979,0.225,977.0
0,982,0.0,981.0
0,987,0.025,980.0
0,983,0.0,986.0
0,973,0.275,980.0
0,966,0.725,972.0
0,962,0.0,965.0
0,966,0.025,962.0
0,964,0.0,965.0
0,962,0.175,963.0
0,956,0.475,962.0
0,954,0.25,956.0
0,950,0.05,953.0
0,951,0.025,952.0
0,952,0.0,953.0
0,951,0.1,954.0
0,948,0.175,950.0
0,949,0.05,948.0
0,946,0.075,950.0
0,948,0.075,946.0
0,949,0.05,948.0
0,950,0.0,950.0
0,948,0.025,949.0
0,948,0.125,949.0
0,946,0.025,949.0
0,948,0.075,946.0
0,948,0.125,948.0
0,949,0.05,948.0
0,945,0.1,950.0
0,943,0.0,945.0
0,943,0.0,942.0
0,944,0.0,942.0
0,947,0.025,945.0
0,945,0.075,948.0
0,943,0.0,945.0
0,943,0.0,942.0
0,943,0.0,942.0
0,942,0.025,942.0
0,944,0.0,942.0
0,939,0.05,945.0
0,929,0.825,940.0
0,922,0.075,931.0
0,917,0.2,923.0
0,917,0.0,919.0
0,910,0.0,919.0
0,905,0.0,916.0
0,910,0.0,904.0
0,929,0.15,916.0
0,954,1.0,931.0
0,984,1.0,953.0
0,1024,0.975,980.0
0,1076,0.025,1071.0
0,1132,0.0,1137.0
0,1170,0.275,1165.0
0,1192,0.175,1195.0
0,1189,0.525,1200.0
0,1152,0.425,1195.0
0,1075,0.125,1076.0
0,991,0.325,1137.0
0,931,0.95,986.0
0,904,1.0,931.0
0,905,0.0,904.0
0,919,0.0,904.0
0,930,0.0,919.0
0,933,0.0,931.0
0,931,0.15,934.0
0,929,0.0,931.0
0,933,0.0,928.0
0,936,0.275,935.0
0,935,0.025,939.0
0,934,0.0,937.0
0,933,0.55,935.0
0,934,0.125,934.0
0,935,0.25,935.0
0,936,0.075,934.0
0,936,0.075,934.0
0,935,0.0,939.0
0,934,0.0,934.0
0,931,0.85,935.0
0,935,0.1,931.0
0,937,0.025,934.0
0,938,0.25,939.0
0,935,0.0,940.0
0,931,0.725,934.0
0,931,0.0,931.0
0,933,0.0,931.0
0,935,0.175,934.0
0,934,0.0,934.0
0,932,0.675,935.0
0,932,0.0,931.0
0,932,0.075,934.0
0,933,0.025,934.0
0,934,0.0,934.0
0,933,0.55,935.0
0,933,0.15,934.0
0,931,0.0,934.0
0,931,0.0,931.0
0,933,0.0,931.0
0,934,0.0,934.0
0,932,0.675,935.0
0,931,0.025,931.0
0,931,0.0,932.0
0,932,0.05,931.0
0,935,0.05,932.0
0,939,0.3,934.0
0,936,0.0,940.0
0,937,0.275,939.0
0,933,0.425,939.0
0,935,0.175,931.0
0,937,0.025,934.0
0,937,0.15,939.0
0,935,0.0,939.0
0,933,0.425,934.0
0,932,0.275,931.0
0,933,0.0,931.0
0,935,0.0,934.0
0,934,0.0,934.0
0,934,0.225,935.0
0,935,0.225,935.0
0,934,0.0,934.0
0,934,0.225,935.0
0,935,0.225,935.0
0,936,0.075,934.0
0,937,0.0,934.0
0,936,0.0,939.0
0,935,0.0,939.0
0,936,0.075,934.0
0,936,0.075,934.0
0,938,0.0,939.0
0,936,0.0,940.0
0,935,0.025,939.0
0,934,0.0,934.0
0,933,0.525,935.0
0,936,0.125,934.0
0,938,0.0,939.0
0,936,0.0,940.0
0,936,0.1,939.0
0,933,0.0,939.0
0,932,0.125,934.0
0,935,0.0,931.0
0,937,0.025,934.0
0,935,0.0,939.0
0,935,0.15,934.0
0,935,0.15,934.0
0,931,0.725,934.0
0,932,0.0,931.0
0,935,0.0,934.0
0,936,0.05,934.0
0,935,0.35,936.0
0,934,0.0,934.0
0,932,0.65,935.0
0,937,0.425,931.0
0,938,0.25,939.0
0,938,0.075,940.0
0,935,0.0,940.0
0,935,0.0,934.0
0,935,0.0,934.0
0,937,0.025,934.0
0,942,0.475,939.0
0,941,0.0,942.0
0,942,0.0,941.0
0,943,0.125,942.0
0,943,0.0,942.0
0,948,0.0,942.0
0,951,0.025,948.0
0,952,0.025,952.0
0,952,0.025,954.0
0,951,0.1,954.0
0,953,0.05,952.0
0,955,0.025,953.0
0,957,0.0,956.0
0,955,0.025,957.0
0,957,0.025,953.0
0,959,0.05,955.0
0,959,0.0,959.0
0,960,0.125,959.0
0,964,0.6,959.0
0,963,0.0,962.0
0,960,0.275,962.0
0,958,0.0,959.0
0,959,0.0,959.0
0,961,0.225,959.0
0,962,0.175,962.0
0,961,0.0,962.0
0,960,0.025,962.0
0,956,0.05,959.0
0,956,0.025,955.0
0,958,0.175,955.0
0,961,0.35,959.0
0,959,0.05,962.0
0,958,0.0,959.0
0,956,0.05,959.0
0,956,0.0,955.0
0,958,0.175,955.0
0,958,0.025,959.0
0,956,0.05,959.0
0,958,0.125,958.0
0,955,0.0,959.0
0,955,0.0,953.0
0,955,0.05,953.0
0,958,0.2,956.0
0,956,0.05,959.0
0,956,0.0,958.0
0,953,0.25,958.0
0,955,0.2,952.0
0,956,0.025,956.0
0,958,0.05,956.0
0,957,0.0,959.0
0,955,0.05,956.0
0,953,0.2,955.0
0,953,0.1,952.0
0,954,0.15,952.0
0,952,0.25,953.0
0,952,0.0,952.0
0,952,0.15,954.0
0,950,0.175,952.0
0,951,0.125,949.0
0,953,0.05,952.0
0,952,0.0,953.0
0,952,0.0,952.0
0,947,0.05,952.0
0,948,0.05,948.0
0,946,0.0,948.0
0,948,0.075,948.0
0,949,0.05,948.0
0,951,0.025,948.0
0,950,0.1,952.0
0,949,0.175,949.0
0,948,0.175,948.0
0,949,0.05,948.0
0,951,0.025,948.0
0,950,0.1,952.0
0,949,0.175,949.0
0,948,0.175,948.0
0,949,0.05,948.0
0,950,0.0,948.0
0,953,0.0,949.0
0,952,0.0,953.0
0,951,0.0,952.0
0,949,0.025,952.0
0,950,0.0,948.0
0,952,0.025,949.0
0,954,0.0,952.0
0,953,0.05,953.0
0,951,0.025,952.0
0,950,0.0,952.0
0,948,0.075,949.0
0,951,0.0,949.0
0,952,0.025,952.0
0,950,0.125,952.0
0,950,0.15,949.0
0,949,0.0,949.0
0,947,0.05,948.0
0,952,0.175,948.0
0,958,0.475,952.0
0,958,0.0,959.0
0,961,0.35,959.0
0,958,0.075,962.0
0,961,0.35,959.0
0,966,0.7,962.0
0,969,0.0,965.0
0,970,0.025,969.0
0,968,0.125,972.0
0,965,0.15,967.0
0,965,0.075,962.0
0,971,0.75,962.0
0,974,0.0,972.0
0,975,0.325,976.0
0,974,0.4,976.0
0,974,0.425,976.0
0,975,0.325,976.0
0,975,0.275,976.0
0,977,0.125,976.0
0,975,0.25,972.0
0,971,0.725,976.0
0,970,0.15,972.0
0,971,0.125,972.0
0,973,0.35,970.0
0,975,0.2,975.0
0,975,0.275,976.0
0,975,0.275,976.0
0,980,0.15,976.0
0,981,0.15,981.0
0,976,0.1,980.0
0,969,0.875,975.0
0,965,0.5,969.0
0,961,0.925,962.0
0,960,0.575,962.0
0,954,0.675,962.0
0,955,0.075,953.0
0,954,0.25,956.0
0,949,0.55,953.0
0,946,0.225,949.0
0,945,0.275,948.0
0,944,0.125,945.0
0,946,0.025,945.0
0,946,0.0,946.0
0,944,0.3,948.0
0,945,0.025,945.0
0,944,0.0,945.0
0,944,0.0,945.0
0,944,0.0,945.0
0,945,0.05,945.0
0,944,0.025,945.0
0,942,0.125,945.0
0,942,0.0,942.0
0,941,0.325,942.0
0,943,0.45,941.0
0,946,0.025,944.0
0,947,0.1,946.0
0,942,0.05,948.0
0,941,0.025,942.0
0,942,0.0,941.0
0,945,0.45,942.0
0,947,0.025,944.0
0,946,0.0,948.0
0,944,0.3,948.0
0,942,0.0,945.0
0,939,0.0,942.0
0,939,0.0,940.0
0,933,0.425,940.0
0,925,0.9,934.0
0,919,0.325,923.0
0,915,0.0,919.0
0,906,0.0,919.0
0,901,0.0,904.0
0,905,0.0,904.0
0,923,0.075,904.0
0,944,1.0,923.0
0,969,0.925,945.0
0,1003,1.0,969.0
0,1054,0.0,940.0
0,1109,0.175,1113.0
0,1153,0.35,1163.0
0,1178,0.95,1075.0
0,1180,0.85,1195.0
0,1146,0.975,1195.0
0,1079,0.65,1066.0
0,1001,0.675,1137.0
0,937,0.45,940.0
0,907,1.0,939.0
0,903,0.0,917.0
0,912,0.05,904.0
0,924,0.0,919.0
0,931,0.55,923.0
0,928,0.0,931.0
0,928,0.0,923.0
0,930,0.025,930.0
0,931,0.05,931.0
0,932,0.075,936.0
0,934,0.075,932.0
0,932,0.65,935.0
0,931,0.075,931.0
0,929,0.0,932.0
0,928,0.025,928.0
0,930,0.025,962.0
0,932,0.025,931.0
0,932,0.05,934.0
0,933,0.05,934.0
0,931,0.05,934.0
0,931,0.0,931.0
0,931,0.025,932.0
0,933,0.025,932.0
0,933,0.025,933.0
0,933,0.025,931.0
0,930,0.1,931.0
0,930,0.025,931.0
0,932,0.125,931.0
0,934,0.05,933.0
0,935,0.05,935.0
0,933,0.425,934.0
0,930,0.125,931.0
0,928,0.0,931.0
0,929,0.0,923.0
0,933,0.025,928.0
0,932,0.025,933.0
0,930,0.0,931.0
0,929,0.0,931.0
0,926,0.125,923.0
0,928,0.0,923.0
0,929,0.25,931.0
0,929,0.0,931.0
0,928,0.0,923.0
0,927,0.025,926.0
0,927,0.025,930.0
0,929,0.0,928.0
0,931,0.025,931.0
0,930,0.025,931.0
0,928,0.0,931.0
0,928,0.0,923.0
0,927,0.0,923.0
0,927,0.0,923.0
0,931,0.025,928.0
0,932,0.1,931.0
0,929,0.075,933.0
0,926,0.1,928.0
0,928,0.0,923.0
0,932,0.025,931.0
0,933,0.025,934.0
0,935,0.025,934.0
0,932,0.55,934.0
0,930,0.025,931.0
0,929,0.0,931.0
0,932,0.025,928.0
0,933,0.025,933.0
0,932,0.025,934.0
0,932,0.025,930.0
0,930,0.025,933.0
0,930,0.025,931.0
0,933,0.025,932.0
0,935,0.0,933.0
0,933,0.425,934.0
0,932,0.05,931.0
0,929,0.0,930.0
0,928,0.0,928.0
0,931,0.025,923.0
0,931,0.025,932.0
0,930,0.025,932.0
0,928,0.0,931.0
0,927,0.0,923.0
0,926,0.0,923.0
0,929,0.0,923.0
0,932,0.05,931.0
0,931,0.025,933.0
0,930,0.025,931.0
0,928,0.0,931.0
0,930,0.025,923.0
0,930,0.025,931.0
0,932,0.025,931.0
0,931,0.025,933.0
0,931,0.05,930.0
0,928,0.0,932.0
0,927,0.0,923.0
0,929,0.0,923.0
0,933,0.075,931.0
0,934,0.0,933.0
0,934,0.025,935.0
0,934,0.175,935.0
0,934,0.175,935.0
0,938,0.05,935.0
0,939,0.05,940.0
0,941,0.0,940.0
0,942,0.1,941.0
0,940,0.15,942.0
0,941,0.0,941.0
0,947,0.8,941.0
0,950,0.075,948.0
0,951,0.1,949.0
0,952,0.15,951.0
0,952,0.025,952.0
0,954,0.05,952.0
0,956,0.35,953.0
0,956,0.075,955.0
0,955,0.025,958.0
0,954,0.025,953.0
0,950,0.075,953.0
0,951,0.0,952.0
0,954,0.025,952.0
0,955,0.125,953.0
0,953,0.325,956.0
0,954,0.15,952.0
0,955,0.125,953.0
0,952,0.475,956.0
0,954,0.2,952.0
0,954,0.225,953.0
0,955,0.25,953.0
0,952,0.5,955.0
0,952,0.025,952.0
0,952,0.0,952.0
0,954,0.05,952.0
0,954,0.075,953.0
0,951,0.225,952.0
0,951,0.025,952.0
0,947,0.275,950.0
0,950,0.175,948.0
0,954,0.075,949.0
0,954,0.2,953.0
0,954,0.15,953.0
0,954,0.15,953.0
0,951,0.1,954.0
0,951,0.025,952.0
0,949,0.05,952.0
0,953,0.2,950.0
0,950,0.1,954.0
0,948,0.1,949.0
0,947,0.075,949.0
0,946,0.15,948.0
0,949,0.375,944.0
0,953,0.225,950.0
0,952,0.025,954.0
0,951,0.025,952.0
0,950,0.125,950.0
0,947,0.1,949.0
0,947,0.075,948.0
0,948,0.1,948.0
0,947,0.075,949.0
0,946,0.125,948.0
0,945,0.225,948.0
0,941,0.3,944.0
0,945,0.075,941.0
0,947,0.075,945.0
0,946,0.075,948.0
0,945,0.225,946.0
0,946,0.025,945.0
0,943,0.375,946.0
0,944,0.075,942.0
0,947,0.0,944.0
0,949,0.15,948.0
0,948,0.15,950.0
0,946,0.05,949.0
0,945,0.225,946.0
0,946,0.0,945.0
0,946,0.15,946.0
0,946,0.15,946.0
0,944,0.825,946.0
0,942,1.0,942.0
0,942,0.175,942.0
0,942,0.0,945.0
0,945,0.2,942.0
0,943,0.1,945.0
0,940,0.15,942.0
0,941,0.075,941.0
0,943,0.025,941.0
0,944,0.075,942.0
0,948,0.225,945.0
0,949,0.175,950.0
0,949,0.05,948.0
0,947,0.075,948.0
0,945,0.175,946.0
0,948,0.2,945.0
0,948,0.1,949.0
0,952,0.175,949.0
0,949,0.125,952.0
0,947,0.125,948.0
0,945,0.175,946.0
0,949,0.225,945.0
0,952,0.025,948.0
0,956,0.5,954.0
0,953,0.4,959.0
0,953,0.1,952.0
0,958,0.65,952.0
0,962,0.6,959.0
0,963,0.025,962.0
0,963,0.025,962.0
0,961,0.15,962.0
0,961,0.05,962.0
0,964,0.5,962.0
0,968,0.45,963.0
0,972,0.175,967.0
0,973,0.1,972.0
0,972,0.35,975.0
0,973,0.0,972.0
0,971,0.175,972.0
0,975,0.425,970.0
0,976,0.25,975.0
0,971,0.725,976.0
0,967,0.25,970.0
0,971,0.225,967.0
0,972,0.15,970.0
0,973,0.05,973.0
0,975,0.225,972.0
0,975,0.35,976.0
0,978,0.05,976.0
0,973,0.55,976.0
0,965,0.75,975.0
0,963,0.025,962.0
0,960,0.275,963.0
0,959,0.05,960.0
0,954,0.25,959.0
0,952,0.125,953.0
0,949,0.275,952.0
0,950,0.025,948.0
0,950,0.0,949.0
0,950,0.15,949.0
0,949,0.05,949.0
0,944,0.325,950.0
0,944,0.05,944.0
0,946,0.025,945.0
0,947,0.1,946.0
0,951,0.025,946.0
0,948,0.2,952.0
0,946,0.075,948.0
0,944,0.35,946.0
0,945,0.0,944.0
0,944,0.0,945.0
0,947,0.0,944.0
0,945,0.15,946.0
0,944,0.0,944.0
0,941,0.05,945.0
0,946,0.475,941.0
0,944,0.35,946.0
0,945,0.0,945.0
0,944,0.0,944.0
0,941,0.05,945.0
0,941,0.025,941.0
0,942,0.0,941.0
0,946,0.8,942.0
0,945,0.2,946.0
0,938,0.25,944.0
0,932,0.55,939.0
0,923,0.725,931.0
0,920,0.25,923.0
0,915,0.05,919.0
0,907,0.0,919.0
0,902,0.025,903.0
0,910,0.0,903.0
0,934,0.325,919.0
0,964,1.0,935.0
0,1002,1.0,963.0
0,1045,0.05,940.0
0,1104,0.15,1082.0
0,1156,0.25,1002.0
0,1195,0.025,1076.0
0,1207,0.475,1200.0
0,1176,0.25,1174.0
0,1097,0.025,1195.0
0,1006,0.025,1011.0
0,938,0.175,940.0
0,908,1.0,940.0
0,906,0.0,919.0
0,917,0.025,903.0
0,926,0.025,919.0
0,931,0.1,923.0
0,928,0.0,931.0
0,930,0.025,923.0
0,930,0.025,931.0
0,934,0.375,931.0
0,933,0.5,935.0
0,932,0.05,931.0
0,932,0.025,930.0
0,932,0.05,933.0
0,933,0.025,933.0
0,936,0.225,934.0
0,935,0.1,935.0
0,934,0.0,934.0
0,933,0.5,935.0
0,930,0.125,931.0
0,931,0.0,931.0
0,936,0.375,930.0
0,933,0.45,935.0
0,932,0.05,931.0
0,930,0.025,930.0
0,930,0.025,930.0
0,932,0.025,931.0
0,931,0.025,933.0
0,933,0.025,930.0
0,933,0.025,933.0
0,929,0.075,931.0
0,930,0.0,931.0
0,930,0.025,930.0
0,934,0.375,930.0
0,935,0.05,935.0
0,935,0.0,934.0
0,935,0.0,934.0
0,933,0.425,934.0
0,935,0.1,931.0
0,936,0.05,934.0
0,933,0.45,935.0
0,932,0.05,931.0
0,930,0.025,930.0
0,931,0.025,930.0
0,933,0.025,930.0
0,935,0.0,933.0
0,931,0.725,934.0
0,931,0.0,931.0
0,930,0.025,930.0
0,931,0.025,930.0
0,932,0.1,931.0
0,933,0.025,933.0
0,932,0.025,934.0
0,933,0.0,930.0
0,932,0.025,934.0
0,934,0.0,930.0
0,934,0.05,935.0
0,936,0.0,935.0
0,936,0.3,935.0
0,935,0.1,935.0
0,934,0.0,934.0
0,933,0.5,935.0
0,933,0.025,931.0
0,934,0.05,930.0
0,935,0.0,934.0
0,932,0.55,934.0
0,931,0.0,931.0
0,929,0.0,930.0
0,935,0.525,928.0
0,936,0.05,934.0
0,931,0.725,935.0
0,934,0.1,931.0
0,932,0.65,935.0
0,931,0.0,931.0
0,932,0.075,930.0
0,932,0.05,933.0
0,932,0.05,933.0
0,928,0.15,933.0
0,928,0.0,923.0
0,926,0.15,923.0
0,929,0.075,929.0
0,928,0.0,931.0
0,928,0.0,927.0
0,927,0.0,926.0
0,926,0.0,923.0
0,923,0.05,923.0
0,926,0.025,923.0
0,929,0.0,931.0
0,926,0.025,931.0
0,927,0.025,923.0
0,926,0.0,926.0
0,924,0.025,923.0
0,928,0.15,923.0
0,931,0.0,931.0
0,930,0.025,931.0
0,932,0.025,931.0
0,933,0.025,933.0
0,937,0.4,934.0
0,942,0.625,939.0
0,947,0.05,942.0
0,947,0.05,946.0
0,948,0.025,946.0
0,950,0.0,948.0
0,952,0.025,949.0
0,956,0.25,952.0
0,958,0.175,956.0
0,959,0.05,959.0
0,959,0.05,959.0
0,960,0.15,959.0
0,960,0.075,959.0
0,964,0.6,959.0
0,968,0.45,963.0
0,967,0.025,967.0
0,966,0.05,967.0
0,965,0.025,965.0
0,965,0.05,963.0
0,967,0.2,963.0
0,969,0.0,967.0
0,969,0.0,967.0
0,968,0.075,967.0
0,965,0.175,967.0
0,965,0.05,965.0
0,967,0.2,965.0
0,968,0.0,967.0
0,966,0.1,967.0
0,966,0.0,965.0
0,964,0.025,965.0
0,964,0.05,963.0
0,966,0.125,963.0
0,968,0.025,965.0
0,966,0.1,967.0
0,965,0.0,965.0
0,963,0.025,965.0
0,963,0.025,963.0
0,963,0.025,963.0
0,966,0.175,963.0
0,966,0.0,965.0
0,965,0.0,965.0
0,965,0.05,965.0
0,964,0.075,965.0
0,965,0.05,963.0
0,969,0.275,965.0
0,966,0.1,969.0
0,964,0.025,965.0
0,965,0.05,963.0
0,963,0.025,965.0
0,966,0.175,963.0
0,966,0.0,965.0
0,964,0.0,965.0
0,963,0.025,963.0
0,961,0.15,963.0
0,959,0.1,960.0
0,963,0.625,959.0
0,965,0.05,963.0
0,963,0.025,965.0
0,959,0.45,963.0
0,958,0.05,959.0
0,958,0.05,959.0
0,959,0.05,959.0
0,961,0.3,959.0
0,960,0.05,960.0
0,960,0.075,959.0
0,959,0.05,959.0
0,958,0.05,959.0
0,960,0.225,959.0
0,963,0.425,959.0
0,963,0.025,963.0
0,963,0.025,963.0
0,961,0.15,963.0
0,962,0.2,960.0
0,961,0.0,962.0
0,965,0.6,960.0
0,964,0.075,963.0
0,963,0.025,963.0
0,960,0.275,963.0
0,960,0.075,959.0
0,961,0.1,960.0
0,962,0.2,960.0
0,962,0.0,962.0
0,960,0.0,963.0
0,958,0.075,960.0
0,960,0.225,959.0
0,960,0.075,960.0
0,963,0.425,960.0
0,962,0.075,963.0
0,961,0.0,962.0
0,961,0.05,960.0
0,959,0.075,960.0
0,961,0.3,959.0
0,963,0.35,960.0
0,963,0.025,963.0
0,964,0.05,963.0
0,963,0.025,963.0
0,964,0.05,963.0
0,970,0.6,963.0
0,972,0.175,972.0
0,975,0.125,973.0
0,975,0.125,975.0
0,975,0.125,975.0
0,975,0.125,975.0
0,978,0.025,975.0
0,982,0.275,976.0
0,980,0.05,980.0
0,982,0.0,981.0
0,983,0.0,980.0
0,984,0.0,980.0
0,987,0.0,980.0
0,989,0.025,986.0
0,990,0.0,986.0
0,989,0.0,986.0
0,987,0.025,986.0
0,986,0.0,986.0
0,985,0.0,986.0
0,986,0.0,986.0
0,988,0.0,986.0
0,989,0.0,986.0
0,988,0.0,986.0
0,986,0.0,986.0
0,992,0.0,986.0
0,996,0.0,989.0
0,999,0.025,984.0
0,994,0.025,940.0
0,987,0.025,986.0
0,979,0.075,986.0
0,976,0.0,981.0
0,977,0.125,975.0
0,973,0.325,976.0
0,972,0.3,975.0
0,966,0.0,973.0
0,962,0.0,965.0
0,962,0.0,962.0
0,964,0.025,962.0
0,959,0.625,963.0
0,961,0.3,959.0
0,959,0.075,960.0
0,958,0.0,959.0
0,959,0.025,959.0
0,960,0.175,959.0
0,958,0.0,960.0
0,957,0.0,959.0
0,954,0.15,955.0
0,951,0.125,954.0
0,957,0.5,952.0
0,959,0.025,956.0
0,961,0.025,961.0
0,959,0.075,960.0
0,958,0.1,961.0
0,956,0.325,957.0
0,958,0.175,955.0
0,960,0.225,959.0
0,959,0.025,960.0
0,956,0.4,961.0
0,954,0.3,955.0
0,948,0.55,954.0
0,944,0.075,948.0
0,938,0.075,945.0
0,935,0.0,940.0
0,928,0.875,934.0
0,919,0.475,931.0
0,914,0.05,919.0
0,925,0.0,919.0
0,945,1.0,923.0
0,970,0.425,944.0
0,994,1.0,972.0
0,1021,0.0,986.0
0,1058,0.35,1071.0
0,1109,0.1,1113.0
0,1160,0.0,1163.0
0,1194,0.0,1195.0
0,1213,0.05,1200.0
0,1227,0.225,1212.0
0,1238,0.25,1225.0
0,1237,0.95,1252.0
0,1200,1.0,1252.0
0,1124,0.95,1200.0
0,1036,0.9,1170.0
0,965,1.0,1063.0
0,928,1.0,963.0
0,923,0.05,931.0
0,935,0.95,923.0
0,946,0.975,934.0
0,948,0.05,946.0
0,947,0.05,948.0
0,944,0.15,948.0
0,947,0.0,945.0
0,949,0.125,948.0
0,948,0.025,950.0
0,949,0.075,948.0
0,949,0.025,948.0
0,947,0.075,948.0
0,946,0.075,948.0
0,949,0.2,946.0
0,949,0.025,948.0
0,946,0.075,948.0
0,945,0.2,946.0
0,944,0.0,944.0
0,946,0.0,945.0
0,948,0.05,945.0
0,946,0.075,949.0
0,944,0.3,946.0
0,945,0.0,945.0
0,944,0.0,944.0
0,947,0.0,945.0
0,948,0.0,948.0
0,947,0.05,949.0
0,946,0.075,948.0
0,946,0.15,946.0
0,946,0.15,946.0
0,948,0.0,946.0
0,950,0.025,949.0
0,948,0.175,949.0
0,945,0.075,949.0
0,942,0.3,944.0
0,944,0.05,942.0
0,946,0.0,945.0
0,948,0.0,946.0
0,947,0.05,949.0
0,948,0.0,948.0
0,947,0.05,948.0
0,945,0.175,948.0
0,945,0.025,944.0
0,947,0.0,944.0
0,947,0.05,948.0
0,947,0.05,948.0
0,945,0.175,948.0
0,946,0.025,944.0
0,949,0.2,946.0
0,950,0.0,948.0
0,948,0.05,949.0
0,948,0.0,948.0
0,947,0.05,948.0
0,949,0.15,948.0
0,949,0.025,948.0
0,954,0.5,948.0
0,954,0.15,954.0
0,952,0.125,954.0
0,952,0.025,952.0
0,949,0.05,952.0
0,953,0.2,948.0
0,954,0.05,954.0
0,952,0.125,954.0
0,950,0.0,952.0
0,949,0.025,949.0
0,949,0.025,948.0
0,949,0.025,948.0
0,951,0.0,949.0
0,951,0.0,950.0
0,951,0.15,950.0
0,946,0.3,949.0
0,948,0.0,946.0
0,949,0.075,949.0
0,952,0.025,949.0
0,952,0.025,954.0
0,950,0.125,954.0
0,947,0.1,949.0
0,950,0.05,948.0
0,952,0.025,949.0
0,954,0.05,952.0
0,953,0.05,954.0
0,950,0.0,952.0
0,953,0.05,949.0
0,952,0.025,954.0
0,953,0.025,952.0
0,955,0.425,952.0
0,955,0.15,954.0
0,958,0.25,954.0
0,956,0.075,959.0
0,956,0.075,958.0
0,959,0.325,958.0
0,961,0.325,959.0
0,963,0.35,960.0
0,964,0.05,963.0
0,965,0.0,963.0
0,961,0.225,963.0
0,968,0.875,960.0
0,971,0.15,966.0
0,972,0.15,972.0
0,973,0.0,973.0
0,971,0.2,975.0
0,971,0.025,972.0
0,976,0.35,972.0
0,979,0.125,975.0
0,977,0.075,982.0
0,976,0.025,976.0
0,974,0.375,975.0
0,976,0.05,975.0
0,975,0.25,975.0
0,978,0.025,975.0
0,976,0.15,976.0
0,975,0.025,975.0
0,973,0.325,975.0
0,972,0.3,975.0
0,975,0.0,973.0
0,976,0.05,975.0
0,976,0.05,975.0
0,973,0.325,975.0
0,974,0.1,975.0
0,972,0.575,975.0
0,976,0.0,973.0
0,976,0.05,975.0
0,978,0.025,975.0
0,976,0.15,976.0
0,973,0.325,976.0
0,973,0.3,975.0
0,975,0.0,975.0
0,975,0.025,975.0
0,976,0.05,975.0
0,975,0.025,976.0
0,973,0.325,975.0
0,972,0.3,975.0
0,972,0.0,973.0
0,976,0.0,973.0
0,976,0.05,975.0
0,978,0.025,975.0
0,975,0.225,976.0
0,972,0.575,975.0
0,973,0.0,972.0
0,974,0.1,972.0
0,973,0.35,976.0
0,974,0.1,975.0
0,971,0.625,976.0
0,968,0.175,972.0
0,971,0.15,966.0
0,973,0.3,972.0
0,970,0.425,975.0
0,970,0.05,972.0
0,967,0.075,972.0
0,966,0.05,966.0
0,968,0.0,965.0
0,972,0.175,966.0
0,968,0.025,973.0
0,967,0.05,966.0
0,964,0.1,966.0
0,962,0.275,963.0
0,962,0.0,962.0
0,967,0.025,962.0
0,968,0.0,966.0
0,966,0.1,967.0
0,963,0.025,964.0
0,965,0.0,963.0
0,966,0.075,963.0
0,969,0.025,965.0
0,968,0.1,967.0
0,967,0.05,966.0
0,964,0.075,966.0
0,964,0.05,963.0
0,965,0.0,963.0
0,968,0.075,963.0
0,965,0.175,967.0
0,964,0.075,963.0
0,962,0.2,963.0
0,961,0.0,962.0
0,963,0.35,960.0
0,964,0.05,963.0
0,966,0.1,963.0
0,963,0.0,965.0
0,963,0.025,963.0
0,965,0.0,963.0
0,966,0.075,963.0
0,966,0.0,965.0
0,965,0.0,965.0
0,966,0.075,963.0
0,962,0.075,965.0
0,965,0.0,962.0
0,966,0.075,963.0
0,970,0.075,965.0
0,970,0.05,972.0
0,970,0.05,972.0
0,969,0.0,972.0
0,971,0.15,968.0
0,975,0.4,972.0
0,978,0.025,975.0
0,979,0.025,976.0
0,979,0.0,976.0
0,981,0.0,976.0
0,979,0.025,980.0
0,984,0.075,981.0
0,984,0.025,986.0
0,986,0.025,986.0
0,985,0.0,986.0
0,984,0.0,986.0
0,984,0.0,986.0
0,989,0.0,986.0
0,994,0.0,986.0
0,994,0.0,987.0
0,990,0.0,986.0
0,990,0.0,986.0
0,987,0.025,986.0
0,990,0.0,986.0
0,990,0.0,986.0
0,989,0.0,990.0
0,990,0.0,986.0
0,991,0.0,990.0
0,990,0.0,990.0
0,992,0.0,990.0
0,999,0.125,990.0
0,998,0.075,940.0
0,998,0.0,940.0
0,987,0.25,940.0
0,981,0.0,986.0
0,978,0.0,980.0
0,979,0.05,976.0
0,976,0.0,981.0
0,970,0.7,976.0
0,968,0.0,970.0
0,965,0.175,966.0
0,965,0.05,965.0
0,963,0.025,965.0
0,963,0.025,963.0
0,962,0.1,963.0
0,961,0.0,962.0
0,960,0.05,960.0
0,960,0.075,960.0
0,962,0.225,960.0
0,962,0.0,962.0
0,958,0.05,962.0
0,957,0.0,959.0
0,956,0.075,955.0
0,961,0.225,958.0
0,964,0.475,960.0
0,962,0.2,963.0
0,961,0.0,962.0
0,960,0.05,960.0
0,959,0.025,960.0
0,961,0.025,961.0
0,963,0.35,960.0
0,963,0.025,963.0
0,962,0.1,963.0
0,959,0.0,962.0
0,959,0.025,959.0
0,958,0.1,961.0
0,960,0.0,956.0
0,958,0.15,961.0
0,957,0.075,956.0
0,953,0.35,955.0
0,948,0.525,952.0
0,944,0.075,949.0
0,939,0.15,945.0
0,935,0.025,940.0
0,930,0.8,934.0
0,917,0.775,931.0
0,912,0.0,919.0
0,924,0.0,919.0
0,944,1.0,923.0
0,971,0.225,945.0
0,996,1.0,972.0
0,1029,0.05,998.0
0,1080,0.0,1063.0
0,1137,0.0,1137.0
0,1180,0.075,1185.0
0,1202,0.1,1195.0
0,1203,0.05,1200.0
0,1171,0.0,1200.0
0,1099,0.0,1195.0
0,1022,0.25,1006.0
0,961,0.525,1071.0
0,930,1.0,960.0
0,924,0.375,931.0
0,929,0.375,923.0
0,939,0.875,931.0
0,950,1.0,940.0
0,952,0.025,952.0
0,951,0.0,952.0
0,950,0.125,950.0
0,949,0.05,949.0
0,948,0.025,949.0
0,951,0.0,949.0
0,952,0.0,952.0
0,952,0.025,952.0
0,950,0.0,954.0
0,948,0.1,949.0
0,947,0.05,949.0
0,951,0.025,948.0
0,952,0.0,952.0
0,951,0.075,952.0
0,950,0.0,950.0
0,950,0.0,949.0
0,948,0.1,949.0
0,952,0.125,949.0
0,954,0.05,952.0
0,952,0.125,952.0
0,953,0.125,952.0
0,951,0.0,952.0
0,951,0.0,952.0
0,953,0.075,952.0
0,953,0.075,954.0
0,954,0.2,952.0
0,952,0.125,952.0
0,950,0.0,952.0
0,952,0.025,949.0
0,952,0.025,952.0
0,955,0.025,954.0
0,955,0.175,954.0
0,952,0.5,954.0
0,952,0.0,952.0
0,948,0.125,952.0
0,950,0.0,949.0
0,954,0.05,949.0
0,952,0.15,952.0
0,951,0.025,952.0
0,949,0.05,952.0
0,949,0.025,949.0
0,953,0.175,949.0
0,952,0.0,954.0
0,953,0.0,952.0
0,952,0.0,952.0
0,951,0.0,952.0
0,951,0.05,952.0
0,953,0.05,952.0
0,955,0.05,952.0
0,954,0.3,955.0
0,953,0.125,952.0
0,949,0.325,952.0
0,950,0.0,949.0
0,951,0.0,949.0
0,952,0.0,952.0
0,952,0.0,952.0
0,951,0.05,952.0
0,948,0.125,952.0
0,950,0.0,949.0
0,951,0.0,949.0
0,953,0.025,952.0
0,953,0.075,952.0
0,953,0.025,952.0
0,952,0.025,952.0
0,950,0.1,952.0
0,952,0.025,949.0
0,953,0.05,952.0
0,955,0.075,952.0
0,953,0.375,954.0
0,951,0.0,952.0
0,948,0.0,952.0
0,953,0.35,949.0
0,954,0.15,952.0
0,954,0.2,952.0
0,952,0.125,952.0
0,952,0.0,952.0
0,949,0.025,952.0
0,951,0.1,949.0
0,951,0.0,952.0
0,952,0.0,952.0
0,953,0.05,952.0
0,950,0.125,952.0
0,948,0.0,949.0
0,951,0.025,949.0
0,952,0.0,952.0
0,954,0.025,952.0
0,952,0.1,953.0
0,952,0.0,952.0
0,951,0.15,952.0
0,954,0.075,952.0
0,958,0.7,953.0
0,956,0.075,959.0
0,956,0.1,958.0
0,955,0.075,958.0
0,955,0.175,953.0
0,957,0.05,954.0
0,960,0.325,956.0
0,960,0.175,960.0
0,961,0.1,961.0
0,960,0.05,960.0
0,961,0.15,960.0
0,961,0.025,960.0
0,965,0.625,960.0
0,967,0.2,965.0
0,967,0.05,966.0
0,967,0.0,966.0
0,969,0.0,967.0
0,971,0.175,967.0
0,972,0.15,972.0
0,973,0.0,973.0
0,973,0.3,975.0
0,971,0.25,975.0
0,972,0.15,972.0
0,973,0.0,973.0
0,976,0.05,972.0
0,976,0.0,976.0
0,977,0.025,976.0
0,976,0.0,976.0
0,974,0.0,976.0
0,975,0.025,976.0
0,975,0.0,976.0
0,977,0.025,976.0
0,974,0.15,976.0
0,974,0.025,975.0
0,971,0.625,975.0
0,975,0.375,972.0
0,977,0.025,976.0
0,975,0.0,976.0
0,975,0.0,975.0
0,972,0.175,976.0
0,972,0.0,973.0
0,974,0.0,973.0
0,975,0.025,975.0
0,975,0.0,976.0
0,973,0.075,976.0
0,974,0.1,975.0
0,970,0.675,975.0
0,973,0.325,972.0
0,973,0.3,975.0
0,971,0.25,975.0
0,972,0.15,972.0
0,971,0.075,973.0
0,970,0.075,972.0
0,972,0.175,972.0
0,972,0.0,973.0
0,974,0.0,973.0
0,973,0.35,975.0
0,972,0.05,975.0
0,971,0.0,972.0
0,971,0.0,972.0
0,973,0.025,970.0
0,971,0.15,972.0
0,969,0.125,972.0
0,969,0.0,972.0
0,967,0.025,969.0
0,970,0.075,967.0
0,972,0.075,972.0
0,970,0.125,972.0
0,970,0.05,972.0
0,969,0.0,970.0
0,966,0.025,969.0
0,968,0.0,965.0
0,969,0.0,967.0
0,968,0.0,969.0
0,967,0.075,967.0
0,960,0.725,967.0
0,962,0.3,960.0
0,965,0.0,962.0
0,968,0.125,963.0
0,970,0.075,967.0
0,969,0.0,969.0
0,967,0.025,969.0
0,966,0.0,967.0
0,968,0.0,965.0
0,969,0.0,967.0
0,967,0.025,969.0
0,967,0.0,967.0
0,966,0.025,967.0
0,966,0.0,965.0
0,967,0.0,965.0
0,967,0.0,967.0
0,968,0.0,967.0
0,965,0.175,967.0
0,965,0.05,963.0
0,965,0.05,963.0
0,966,0.075,965.0
0,967,0.0,966.0
0,967,0.0,967.0
0,966,0.0,967.0
0,965,0.0,965.0
0,966,0.075,965.0
0,966,0.0,967.0
0,971,0.0,965.0
0,970,0.05,972.0
0,968,0.0,969.0
0,967,0.0,967.0
0,965,0.025,967.0
0,969,0.35,965.0
0,971,0.15,967.0
0,969,0.0,973.0
0,970,0.05,967.0
0,969,0.0,969.0
0,968,0.0,967.0
0,972,0.325,967.0
0,971,0.0,972.0
0,972,0.0,972.0
0,971,0.0,972.0
0,969,0.025,972.0
0,971,0.075,967.0
0,974,0.0,969.0
0,977,0.025,975.0
0,978,0.0,975.0
0,978,0.05,976.0
0,979,0.0,976.0
0,978,0.025,976.0
0,984,0.3,976.0
0,985,0.0,986.0
0,984,0.0,986.0
0,983,0.0,986.0
0,983,0.0,986.0
0,981,0.05,986.0
0,990,0.5,980.0
0,993,0.0,990.0
0,993,0.0,990.0
0,993,0.0,990.0
0,992,0.0,990.0
0,991,0.0,990.0
0,995,0.0,990.0
0,997,0.0,990.0
0,995,0.0,998.0
0,993,0.0,990.0
0,991,0.0,990.0
0,989,0.0,990.0
0,993,0.0,990.0
0,996,0.0,990.0
0,993,0.0,998.0
0,992,0.0,990.0
0,992,0.0,990.0
0,994,0.0,990.0
0,996,0.0,993.0
0,991,0.0,993.0
0,987,0.025,990.0
0,981,0.025,986.0
0,977,0.025,980.0
0,977,0.075,976.0
0,974,0.15,976.0
0,974,0.075,975.0
0,972,0.625,975.0
0,968,0.05,973.0
0,964,0.3,967.0
0,963,0.05,963.0
0,964,0.05,963.0
0,963,0.05,963.0
0,964,0.05,963.0
0,964,0.05,963.0
0,961,0.325,963.0
0,960,0.075,960.0
0,963,0.55,960.0
0,965,0.0,963.0
0,961,0.225,965.0
0,961,0.025,960.0
0,961,0.025,960.0
0,960,0.1,960.0
0,961,0.2,960.0
0,964,0.5,960.0
0,963,0.05,963.0
0,961,0.2,963.0
0,957,0.225,960.0
0,957,0.025,955.0
0,958,0.175,955.0
0,960,0.025,960.0
0,961,0.125,961.0
0,960,0.05,960.0
0,961,0.225,960.0
0,961,0.025,960.0
0,959,0.025,960.0
0,958,0.0,961.0
0,957,0.125,960.0
0,949,0.85,955.0
0,940,0.925,949.0
0,934,0.35,941.0
0,934,0.175,935.0
0,929,0.925,935.0
0,921,0.275,931.0
0,915,0.05,919.0
0,919,0.025,919.0
0,934,0.0,919.0
0,959,1.0,935.0
0,986,1.0,959.0
0,1018,0.65,986.0
0,1066,0.025,1043.0
0,1122,0.075,982.0
0,1165,0.0,1170.0
0,1196,0.0,1195.0
0,1201,0.0,1200.0
0,1176,0.05,1200.0
0,1119,0.15,1195.0
0,1048,0.975,1166.0
0,982,0.9,1082.0
0,943,1.0,981.0
0,927,0.925,942.0
0,928,0.0,931.0
0,937,0.675,930.0
0,945,0.8,939.0
0,947,0.0,944.0
0,949,0.125,948.0
0,949,0.025,949.0
0,950,0.0,949.0
0,948,0.0,949.0
0,948,0.0,949.0
0,947,0.05,949.0
0,947,0.05,948.0
0,950,0.025,948.0
0,948,0.0,952.0
0,947,0.05,949.0
0,947,0.05,948.0
0,944,0.15,948.0
0,947,0.0,945.0
0,950,0.025,948.0
0,949,0.025,952.0
0,948,0.0,949.0
0,947,0.05,949.0
0,946,0.075,948.0
0,948,0.05,948.0
0,950,0.0,947.0
0,949,0.025,949.0
0,948,0.025,949.0
0,949,0.075,947.0
0,948,0.025,949.0
0,948,0.0,949.0
0,949,0.0,949.0
0,950,0.0,948.0
0,949,0.025,949.0
0,946,0.25,948.0
0,946,0.2,948.0
0,947,0.125,948.0
0,951,0.0,948.0
0,951,0.0,952.0
0,950,0.0,952.0
0,948,0.1,949.0
0,947,0.05,949.0
0,950,0.0,948.0
0,951,0.0,949.0
0,952,0.025,952.0
0,949,0.075,952.0
0,945,0.375,948.0
0,945,0.0,944.0
0,944,0.0,944.0
0,945,0.0,945.0
0,947,0.0,944.0
0,948,0.0,948.0
0,947,0.05,949.0
0,946,0.075,948.0
0,945,0.225,948.0
0,947,0.0,944.0
0,948,0.0,948.0
0,947,0.05,947.0
0,945,0.175,948.0
0,945,0.0,944.0
0,947,0.0,944.0
0,946,0.075,948.0
0,947,0.075,948.0
0,947,0.05,948.0
0,947,0.05,948.0
0,944,0.15,948.0
0,947,0.0,945.0
0,950,0.0,947.0
0,951,0.0,949.0
0,947,0.1,952.0
0,946,0.075,947.0
0,944,0.3,947.0
0,950,0.025,945.0
0,948,0.075,952.0
0,948,0.0,947.0
0,948,0.0,947.0
0,947,0.05,947.0
0,945,0.175,948.0
0,949,0.05,944.0
0,950,0.0,948.0
0,950,0.0,949.0
0,948,0.1,949.0
0,944,0.075,947.0
0,943,0.0,945.0
0,944,0.0,942.0
0,946,0.0,945.0
0,950,0.075,947.0
0,947,0.15,952.0
0,944,0.15,947.0
0,942,0.0,945.0
0,946,0.025,942.0
0,946,0.175,947.0
0,947,0.1,947.0
0,946,0.075,948.0
0,942,0.075,947.0
0,944,0.0,942.0
0,945,0.025,945.0
0,948,0.0,944.0
0,949,0.025,947.0
0,946,0.05,950.0
0,949,0.125,947.0
0,950,0.025,948.0
0,952,0.05,949.0
0,957,0.4,952.0
0,959,0.125,959.0
0,960,0.025,961.0
0,961,0.125,961.0
0,963,0.375,960.0
0,965,0.0,963.0
0,968,0.2,965.0
0,970,0.05,967.0
0,969,0.0,969.0
0,969,0.0,967.0
0,970,0.05,967.0
0,972,0.175,969.0
0,974,0.0,973.0
0,974,0.05,975.0
0,973,0.375,975.0
0,972,0.05,972.0
0,972,0.0,972.0
0,970,0.125,972.0
0,972,0.0,972.0
0,973,0.0,973.0
0,973,0.1,972.0
0,970,0.35,972.0
0,968,0.0,972.0
0,970,0.05,967.0
0,974,0.125,969.0
0,972,0.125,975.0
0,973,0.1,972.0
0,971,0.1,972.0
0,967,0.2,972.0
0,970,0.075,967.0
0,972,0.0,972.0
0,973,0.0,973.0
0,971,0.1,972.0
0,970,0.05,972.0
0,970,0.05,969.0
0,972,0.15,969.0
0,974,0.0,973.0
0,973,0.15,975.0
0,972,0.0,972.0
0,971,0.0,972.0
0,969,0.025,972.0
0,970,0.05,969.0
0,971,0.075,969.0
0,970,0.05,974.0
0,969,0.0,969.0
0,967,0.0,967.0
0,964,0.0,967.0
0,965,0.0,963.0
0,967,0.225,965.0
0,970,0.0,967.0
0,969,0.0,972.0
0,967,0.0,967.0
0,964,0.0,967.0
0,968,0.4,963.0
0,965,0.175,967.0
0,966,0.075,965.0
0,964,0.125,965.0
0,961,0.275,963.0
0,962,0.2,960.0
0,964,0.0,962.0
0,966,0.1,963.0
0,964,0.125,965.0
0,963,0.0,963.0
0,961,0.2,963.0
0,961,0.025,960.0
0,964,0.475,961.0
0,966,0.1,963.0
0,966,0.05,965.0
0,961,0.25,965.0
0,961,0.025,961.0
0,960,0.05,961.0
0,961,0.225,961.0
0,963,0.375,961.0
0,965,0.0,963.0
0,963,0.0,965.0
0,961,0.2,963.0
0,959,0.025,961.0
0,960,0.05,958.0
0,961,0.125,961.0
0,961,0.025,961.0
0,963,0.375,961.0
0,962,0.175,963.0
0,961,0.0,961.0
0,961,0.025,961.0
0,962,0.2,961.0
0,962,0.0,962.0
0,960,0.0,962.0
0,961,0.225,961.0
0,959,0.025,961.0
0,962,0.05,961.0
0,964,0.0,962.0
0,965,0.0,963.0
0,965,0.05,965.0
0,963,0.0,965.0
0,963,0.025,963.0
0,966,0.15,963.0
0,965,0.025,967.0
0,965,0.025,965.0
0,963,0.0,965.0
0,964,0.05,963.0
0,963,0.0,963.0
0,963,0.025,963.0
0,962,0.175,963.0
0,959,0.05,961.0
0,962,0.5,960.0
0,963,0.025,962.0
0,964,0.05,963.0
0,969,0.3,963.0
0,972,0.0,970.0
0,972,0.0,973.0
0,974,0.125,972.0
0,974,0.025,975.0
0,972,0.175,975.0
0,973,0.1,972.0
0,976,0.025,972.0
0,978,0.025,976.0
0,978,0.1,976.0
0,978,0.1,976.0
0,979,0.0,976.0
0,983,0.025,976.0
0,986,0.025,986.0
0,987,0.025,986.0
0,986,0.025,986.0
0,986,0.0,986.0
0,987,0.0,986.0
0,988,0.0,986.0
0,987,0.0,986.0
0,988,0.0,986.0
0,986,0.0,986.0
0,984,0.0,986.0
0,984,0.0,986.0
0,987,0.0,986.0
0,988,0.0,986.0
0,990,0.0,986.0
0,992,0.0,990.0
0,993,0.0,990.0
0,990,0.0,992.0
0,985,0.0,990.0
0,980,0.0,986.0
0,977,0.0,981.0
0,973,0.35,976.0
0,970,0.25,972.0
0,963,0.45,972.0
0,964,0.05,963.0
0,962,0.125,963.0
0,962,0.15,961.0
0,955,0.7,961.0
0,958,0.325,955.0
0,957,0.05,959.0
0,959,0.125,959.0
0,958,0.025,961.0
0,956,0.2,960.0
0,955,0.15,955.0
0,956,0.15,955.0
0,953,0.425,955.0
0,957,0.275,952.0
0,956,0.1,959.0
0,957,0.1,955.0
0,955,0.1,958.0
0,953,0.25,955.0
0,954,0.175,952.0
0,954,0.225,952.0
0,956,0.125,952.0
0,960,0.425,955.0
0,957,0.075,961.0
0,955,0.125,956.0
0,954,0.1,953.0
0,956,0.125,952.0
0,954,0.325,955.0
0,953,0.2,952.0
0,951,0.05,952.0
0,945,0.6,952.0
0,940,0.025,944.0
0,934,0.25,941.0
0,933,0.5,935.0
0,935,0.1,931.0
0,935,0.0,934.0
0,933,0.425,934.0
0,927,0.475,931.0
0,922,0.05,931.0
0,916,0.075,919.0
0,908,0.025,919.0
0,907,0.0,917.0
0,912,0.025,917.0
0,926,0.0,919.0
0,948,1.0,931.0
0,975,1.0,947.0
0,1008,1.0,975.0
0,1049,0.15,940.0
0,1098,0.1,1082.0
0,1151,0.325,1006.0
0,1193,0.225,1066.0
0,1213,0.0,1200.0
0,1201,0.025,1212.0
0,1149,0.4,1200.0
0,1065,0.025,1066.0
0,984,0.3,982.0
0,938,0.925,986.0
0,924,1.0,940.0
0,925,0.05,923.0
0,931,0.55,929.0
0,940,0.925,931.0
0,940,0.0,941.0
0,943,0.55,941.0
0,944,0.025,944.0
0,945,0.0,945.0
0,945,0.025,944.0
0,944,0.025,945.0
0,942,0.0,945.0
0,943,0.0,942.0
0,945,0.075,944.0
0,942,0.0,944.0
0,942,0.0,942.0
0,944,0.275,942.0
0,944,0.025,945.0
0,945,0.0,945.0
0,948,0.0,944.0
0,948,0.0,947.0
0,947,0.075,947.0
0,944,0.175,948.0
0,942,0.0,945.0
0,942,0.0,942.0
0,945,0.5,942.0
0,945,0.0,944.0
0,945,0.0,945.0
0,945,0.0,945.0
0,943,0.0,945.0
0,946,0.025,942.0
0,946,0.175,947.0
0,947,0.1,947.0
0,947,0.05,948.0
0,944,0.175,947.0
0,942,0.0,945.0
0,944,0.0,942.0
0,945,0.0,945.0
0,947,0.0,945.0
0,947,0.05,947.0
0,946,0.025,947.0
0,946,0.0,947.0
0,946,0.0,947.0
0,949,0.125,947.0
0,950,0.0,950.0
0,949,0.025,949.0
0,946,0.25,948.0
0,945,0.125,946.0
0,947,0.025,945.0
0,948,0.0,947.0
0,949,0.0,947.0
0,946,0.05,950.0
0,946,0.0,946.0
0,945,0.125,946.0
0,948,0.0,945.0
0,949,0.0,947.0
0,950,0.0,950.0
0,947,0.25,949.0
0,945,0.175,947.0
0,946,0.0,945.0
0,944,0.275,946.0
0,947,0.025,945.0
0,948,0.0,947.0
0,949,0.0,947.0
0,946,0.05,950.0
0,945,0.125,946.0
0,947,0.025,945.0
0,947,0.05,947.0
0,949,0.0,947.0
0,949,0.0,950.0
0,948,0.025,950.0
0,947,0.075,947.0
0,945,0.175,947.0
0,948,0.0,945.0
0,948,0.0,947.0
0,947,0.075,947.0
0,946,0.025,947.0
0,944,0.275,946.0
0,944,0.0,945.0
0,945,0.0,945.0
0,944,0.0,945.0
0,942,0.0,945.0
0,940,0.0,942.0
0,938,0.075,941.0
0,938,0.125,940.0
0,939,0.075,940.0
0,939,0.05,940.0
0,937,0.425,940.0
0,937,0.575,972.0
0,936,0.15,939.0
0,939,0.3,937.0
0,940,0.2,942.0
0,941,0.2,941.0
0,941,0.05,941.0
0,939,0.25,941.0
0,944,0.7,940.0
0,946,0.275,944.0
0,951,0.4,948.0
0,955,0.675,952.0
0,958,0.65,962.0
0,959,0.325,960.0
0,958,0.0,960.0
0,962,0.25,956.0
0,965,0.2,962.0
0,969,0.475,965.0
0,968,0.025,972.0
0,969,0.0,967.0
0,970,0.05,969.0
0,974,0.525,969.0
0,976,0.025,975.0
0,976,0.025,976.0
0,975,0.025,976.0
0,975,0.025,975.0
0,974,0.15,975.0
0,977,0.025,975.0
0,978,0.025,976.0
0,978,0.05,978.0
0,977,0.075,976.0
0,976,0.025,976.0
0,978,0.025,976.0
0,979,0.025,978.0
0,979,0.025,979.0
0,980,0.1,976.0
0,980,0.025,981.0
0,978,0.0,981.0
0,977,0.05,976.0
0,979,0.0,976.0
0,980,0.025,979.0
0,981,0.025,981.0
0,979,0.025,980.0
0,978,0.0,976.0
0,975,0.1,976.0
0,976,0.05,975.0
0,979,0.025,976.0
0,979,0.0,980.0
0,978,0.25,979.0
0,976,0.025,976.0
0,975,0.025,976.0
0,978,0.0,975.0
0,978,0.0,978.0
0,978,0.075,978.0
0,975,0.0,978.0
0,975,0.025,975.0
0,972,0.375,975.0
0,973,0.1,972.0
0,976,0.025,972.0
0,975,0.0,976.0
0,975,0.0,975.0
0,974,0.15,975.0
0,973,0.175,975.0
0,974,0.1,972.0
0,975,0.025,975.0
0,976,0.025,975.0
0,974,0.15,975.0
0,972,0.05,974.0
0,971,0.0,972.0
0,970,0.025,972.0
0,971,0.075,969.0
0,972,0.025,970.0
0,969,0.025,973.0
0,967,0.0,967.0
0,968,0.05,967.0
0,968,0.0,967.0
0,972,0.275,967.0
0,968,0.15,972.0
0,968,0.0,967.0
0,966,0.025,967.0
0,963,0.025,965.0
0,967,0.325,963.0
0,967,0.0,967.0
0,969,0.0,967.0
0,969,0.0,967.0
0,967,0.0,967.0
0,965,0.025,967.0
0,966,0.1,965.0
0,968,0.0,965.0
0,970,0.0,967.0
0,969,0.0,969.0
0,970,0.2,967.0
0,967,0.0,969.0
0,969,0.0,967.0
0,968,0.0,970.0
0,969,0.0,967.0
0,967,0.0,967.0
0,968,0.05,967.0
0,965,0.175,967.0
0,968,0.175,965.0
0,969,0.075,967.0
0,968,0.0,967.0
0,968,0.0,967.0
0,967,0.0,967.0
0,966,0.075,967.0
0,969,0.0,965.0
0,972,0.05,968.0
0,972,0.0,973.0
0,975,0.125,973.0
0,974,0.025,975.0
0,975,0.0,972.0
0,980,0.05,975.0
0,983,0.4,981.0
0,985,0.0,986.0
0,986,0.0,986.0
0,985,0.0,986.0
0,985,0.0,986.0
0,987,0.025,986.0
0,990,0.0,986.0
0,992,0.025,990.0
0,992,0.0,990.0
0,992,0.0,990.0
0,994,0.0,992.0
0,994,0.0,992.0
0,995,0.0,992.0
0,996,0.0,992.0
0,994,0.0,992.0
0,991,0.0,992.0
0,989,0.0,992.0
0,992,0.0,990.0
0,994,0.025,992.0
0,994,0.0,992.0
0,995,0.0,992.0
0,996,0.025,994.0
0,998,0.025,994.0
0,998,0.025,994.0
0,994,0.0,998.0
0,985,0.05,994.0
0,982,0.0,986.0
0,981,0.075,980.0
0,977,0.05,980.0
0,978,0.0,976.0
0,978,0.05,978.0
0,974,0.3,978.0
0,970,0.55,975.0
0,967,0.15,972.0
0,966,0.1,967.0
0,966,0.05,965.0
0,968,0.0,964.0
0,967,0.05,967.0
0,967,0.125,967.0
0,966,0.075,967.0
0,962,0.425,965.0
0,963,0.1,964.0
0,966,0.175,963.0
0,967,0.175,968.0
0,965,0.225,966.0
0,963,0.025,965.0
0,960,0.325,963.0
0,962,0.55,961.0
0,961,0.025,961.0
0,963,0.375,961.0
0,963,0.05,963.0
0,959,0.175,963.0
0,957,0.325,959.0
0,959,0.275,955.0
0,963,0.7,959.0
0,964,0.1,963.0
0,964,0.1,963.0
0,962,0.25,963.0
0,959,0.05,961.0
0,958,0.075,960.0
0,953,0.8,956.0
0,943,1.0,950.0
0,939,1.0,941.0
0,933,0.675,942.0
0,923,0.875,931.0
0,919,0.325,923.0
0,930,0.05,919.0
0,950,1.0,931.0
0,976,1.0,950.0
0,1002,1.0,975.0
0,1037,0.6,940.0
0,1090,0.5,1080.0
0,1150,0.975,1006.0
0,1193,0.0,1065.0
0,1216,0.075,1213.0
0,1216,0.15,1230.0
0,1171,0.15,1230.0
0,1094,0.075,1195.0
0,1009,0.125,1006.0
0,954,0.95,945.0
0,928,1.0,952.0
0,927,0.025,931.0
0,935,0.55,929.0
0,948,1.0,934.0
0,953,0.375,947.0
0,955,0.3,952.0
0,955,0.2,954.0
0,953,0.4,954.0
0,953,0.175,952.0
0,953,0.1,952.0
0,955,0.3,952.0
0,955,0.2,955.0
0,953,0.4,955.0
0,951,0.05,952.0
0,948,0.0,952.0
0,950,0.0,947.0
0,952,0.025,949.0
0,951,0.1,952.0
0,953,0.1,952.0
0,952,0.075,952.0
0,950,0.125,952.0
0,951,0.075,949.0
0,951,0.025,952.0
0,952,0.025,952.0
0,951,0.025,952.0
0,949,0.125,952.0
0,947,0.275,948.0
0,947,0.075,946.0
0,948,0.0,947.0
0,950,0.0,947.0
0,950,0.0,949.0
0,949,0.025,949.0
0,946,0.275,948.0
0,949,0.125,947.0
0,950,0.0,950.0
0,954,0.05,949.0
0,953,0.275,952.0
0,953,0.175,952.0
0,951,0.0,952.0
0,952,0.025,952.0
0,953,0.0,952.0
0,954,0.05,952.0
0,953,0.025,953.0
0,949,0.35,952.0
0,951,0.025,950.0
0,951,0.0,952.0
0,954,0.025,952.0
0,953,0.025,953.0
0,951,0.05,952.0
0,951,0.0,952.0
0,949,0.1,952.0
0,951,0.075,946.0
0,952,0.025,953.0
0,951,0.025,952.0
0,950,0.0,951.0
0,949,0.075,949.0
0,950,0.05,946.0
0,952,0.025,949.0
0,952,0.025,952.0
0,953,0.05,952.0
0,954,0.05,952.0
0,954,0.025,953.0
0,952,0.35,953.0
0,954,0.25,952.0
0,955,0.2,952.0
0,956,0.025,953.0
0,954,0.35,955.0
0,953,0.275,952.0
0,953,0.175,952.0
0,954,0.275,952.0
0,955,0.2,953.0
0,958,0.025,953.0
0,954,0.275,959.0
0,953,0.275,953.0
0,953,0.175,952.0
0,954,0.25,952.0
0,955,0.2,953.0
0,957,0.15,953.0
0,955,0.125,959.0
0,952,0.525,953.0
0,951,0.025,952.0
0,953,0.025,952.0
0,954,0.025,954.0
0,953,0.0,953.0
0,955,0.3,954.0
0,954,0.35,953.0
0,953,0.0,953.0
0,955,0.175,953.0
0,956,0.15,953.0
0,956,0.125,955.0
0,956,0.125,955.0
0,954,0.35,955.0
0,953,0.0,953.0
0,956,0.15,953.0
0,958,0.3,955.0
0,956,0.1,959.0
0,959,0.25,955.0
0,958,0.0,959.0
0,957,0.075,956.0
0,961,0.525,955.0
0,963,0.375,961.0
0,967,0.325,963.0
0,969,0.075,966.0
0,968,0.0,967.0
0,965,0.125,967.0
0,970,0.475,963.0
0,971,0.075,972.0
0,973,0.15,972.0
0,975,0.05,972.0
0,973,0.35,975.0
0,973,0.075,972.0
0,975,0.025,972.0
0,977,0.025,975.0
0,977,0.025,976.0
0,978,0.05,976.0
0,977,0.05,978.0
0,976,0.025,978.0
0,979,0.0,975.0
0,979,0.0,978.0
0,978,0.1,978.0
0,978,0.0,976.0
0,974,0.175,978.0
0,975,0.05,975.0
0,977,0.025,975.0
0,978,0.0,976.0
0,976,0.05,978.0
0,976,0.05,975.0
0,977,0.025,976.0
0,973,0.275,978.0
0,975,0.025,972.0
0,975,0.025,975.0
0,976,0.05,975.0
0,976,0.05,976.0
0,974,0.15,976.0
0,972,0.225,975.0
0,974,0.05,972.0
0,974,0.025,975.0
0,975,0.025,972.0
0,973,0.35,975.0
0,972,0.025,972.0
0,971,0.05,972.0
0,973,0.225,972.0
0,975,0.025,972.0
0,974,0.15,975.0
0,974,0.025,975.0
0,973,0.175,975.0
0,970,0.275,972.0
0,973,0.2,972.0
0,974,0.0,972.0
0,975,0.025,975.0
0,974,0.15,975.0
0,970,0.325,975.0
0,971,0.1,972.0
0,972,0.125,973.0
0,973,0.075,972.0
0,972,0.025,972.0
0,971,0.05,972.0
0,970,0.025,972.0
0,967,0.05,969.0
0,968,0.025,966.0
0,969,0.075,967.0
0,968,0.0,967.0
0,968,0.0,967.0
0,966,0.075,967.0
0,965,0.1,962.0
0,967,0.125,963.0
0,971,0.2,967.0
0,968,0.075,972.0
0,968,0.025,967.0
0,965,0.15,967.0
0,965,0.075,963.0
0,967,0.1,963.0
0,971,0.175,966.0
0,969,0.025,972.0
0,969,0.025,967.0
0,967,0.0,967.0
0,966,0.1,967.0
0,968,0.0,965.0
0,969,0.025,967.0
0,970,0.025,967.0
0,969,0.2,969.0
0,967,0.025,967.0
0,965,0.075,967.0
0,966,0.125,965.0
0,971,0.425,968.0
0,970,0.025,972.0
0,968,0.0,969.0
0,965,0.05,967.0
0,965,0.075,965.0
0,966,0.1,965.0
0,968,0.05,968.0
0,972,0.1,967.0
0,972,0.0,972.0
0,972,0.0,972.0
0,973,0.1,972.0
0,975,0.1,972.0
0,979,0.175,974.0
0,981,0.1,981.0
0,983,0.375,979.0
0,983,0.0,986.0
0,982,0.0,986.0
0,986,0.0,981.0
0,988,0.0,986.0
0,990,0.025,986.0
0,989,0.0,992.0
0,989,0.025,990.0
0,988,0.0,990.0
0,990,0.0,986.0
0,994,0.025,990.0
0,995,0.025,994.0
0,995,0.0,994.0
0,994,0.025,994.0
0,991,0.0,994.0
0,993,0.025,992.0
0,995,0.0,994.0
0,995,0.025,994.0
0,995,0.025,994.0
0,992,0.0,994.0
0,989,0.0,994.0
0,992,0.025,990.0
0,993,0.0,992.0
0,993,0.0,994.0
0,994,0.0,992.0
0,992,0.0,995.0
0,994,0.0,992.0
0,999,0.4,994.0
0,996,0.025,994.0
0,991,0.0,994.0
0,986,0.0,992.0
0,981,0.025,986.0
0,976,0.05,983.0
0,976,0.05,975.0
0,974,0.125,976.0
0,971,0.25,975.0
0,970,0.05,972.0
0,963,0.55,969.0
0,963,0.075,963.0
0,966,0.175,963.0
0,966,0.125,968.0
0,966,0.0,968.0
0,964,0.025,968.0
0,963,0.05,963.0
0,961,0.1,963.0
0,961,0.05,961.0
0,960,0.075,961.0
0,960,0.175,961.0
0,960,0.075,961.0
0,958,0.225,961.0
0,957,0.125,957.0
0,961,0.525,955.0
0,959,0.025,961.0
0,960,0.025,958.0
0,960,0.025,961.0
0,959,0.075,961.0
0,959,0.075,960.0
0,958,0.225,960.0
0,961,0.1,957.0
0,959,0.075,962.0
0,954,0.575,958.0
0,944,0.95,953.0
0,934,0.575,945.0
0,933,0.5,935.0
0,931,0.0,931.0
0,920,0.9,931.0
0,916,0.0,919.0
0,924,0.025,919.0
0,944,1.0,923.0
0,969,0.05,945.0
0,1001,1.0,968.0
0,1038,0.0,940.0
0,1094,0.35,1090.0
0,1149,0.075,1006.0
0,1190,0.35,1193.0
0,1213,0.0,1213.0
0,1210,0.0,1212.0
0,1178,0.125,1212.0
0,1119,0.0,1195.0
0,1053,0.6,1166.0
0,994,1.0,1109.0
0,952,0.975,994.0
0,925,1.0,952.0
0,917,0.475,923.0
0,915,0.0,919.0
0,920,0.0,919.0
0,933,0.175,919.0
0,943,0.925,931.0
0,949,0.175,942.0
0,948,0.025,950.0
0,950,0.025,947.0
0,947,0.3,949.0
0,947,0.075,947.0
0,946,0.025,947.0
0,948,0.0,946.0
0,948,0.0,947.0
0,945,0.075,947.0
0,946,0.05,945.0
0,944,0.275,947.0
0,946,0.0,945.0
0,948,0.0,946.0
0,950,0.0,947.0
0,947,0.3,949.0
0,948,0.0,947.0
0,945,0.075,947.0
0,946,0.0,945.0
0,949,0.125,946.0
0,946,0.05,950.0
0,947,0.05,946.0
0,947,0.075,948.0
0,946,0.025,947.0
0,947,0.05,947.0
0,952,0.375,947.0
0,951,0.025,952.0
0,950,0.025,952.0
0,949,0.05,949.0
0,950,0.05,946.0
0,950,0.0,949.0
0,952,0.05,949.0
0,951,0.075,952.0
0,950,0.0,952.0
0,949,0.05,949.0
0,947,0.25,950.0
0,949,0.0,947.0
0,949,0.0,950.0
0,951,0.0,950.0
0,951,0.0,951.0
0,949,0.05,952.0
0,948,0.025,950.0
0,947,0.1,947.0
0,949,0.0,947.0
0,949,0.0,950.0
0,950,0.0,950.0
0,950,0.0,949.0
0,949,0.05,949.0
0,950,0.05,950.0
0,952,0.025,949.0
0,953,0.0,952.0
0,954,0.05,954.0
0,955,0.25,953.0
0,952,0.525,953.0
0,952,0.025,952.0
0,954,0.0,952.0
0,954,0.125,953.0
0,955,0.1,953.0
0,951,0.525,953.0
0,951,0.0,952.0
0,952,0.025,951.0
0,951,0.025,953.0
0,954,0.0,952.0
0,953,0.0,953.0
0,951,0.0,954.0
0,949,0.025,952.0
0,947,0.275,950.0
0,951,0.0,947.0
0,951,0.0,952.0
0,951,0.05,952.0
0,949,0.05,951.0
0,948,0.025,950.0
0,949,0.0,947.0
0,952,0.05,950.0
0,948,0.175,952.0
0,947,0.1,947.0
0,947,0.075,947.0
0,947,0.075,947.0
0,948,0.0,947.0
0,950,0.0,947.0
0,952,0.025,949.0
0,951,0.0,952.0
0,950,0.0,951.0
0,947,0.15,949.0
0,950,0.0,947.0
0,952,0.025,949.0
0,953,0.025,951.0
0,951,0.0,954.0
0,950,0.0,952.0
0,952,0.05,949.0
0,955,0.05,952.0
0,957,0.05,955.0
0,959,0.15,955.0
0,957,0.025,960.0
0,960,0.3,959.0
0,959,0.025,961.0
0,961,0.025,960.0
0,963,0.125,962.0
0,966,0.15,963.0
0,967,0.175,966.0
0,964,0.4,966.0
0,967,0.225,963.0
0,970,0.025,966.0
0,972,0.0,972.0
0,975,0.125,973.0
0,974,0.05,975.0
0,972,0.0,975.0
0,970,0.075,972.0
0,974,0.4,972.0
0,974,0.025,975.0
0,972,0.2,975.0
0,972,0.0,972.0
0,971,0.05,972.0
0,967,0.175,972.0
0,970,0.025,966.0
0,971,0.075,972.0
0,970,0.05,972.0
0,971,0.15,969.0
0,969,0.1,972.0
0,965,0.075,967.0
0,968,0.05,965.0
0,970,0.05,967.0
0,970,0.05,969.0
0,969,0.2,969.0
0,967,0.025,967.0
0,967,0.025,966.0
0,968,0.0,966.0
0,971,0.1,967.0
0,971,0.025,969.0
0,973,0.225,972.0
0,972,0.0,972.0
0,969,0.05,972.0
0,970,0.05,967.0
0,970,0.05,969.0
0,971,0.15,969.0
0,970,0.05,973.0
0,968,0.1,969.0
0,965,0.1,967.0
0,967,0.125,965.0
0,966,0.125,966.0
0,965,0.0,966.0
0,965,0.075,965.0
0,963,0.05,965.0
0,961,0.075,963.0
0,961,0.025,961.0
0,964,0.475,961.0
0,965,0.05,963.0
0,966,0.025,965.0
0,962,0.175,966.0
0,960,0.05,961.0
0,961,0.225,961.0
0,962,0.225,961.0
0,962,0.175,961.0
0,962,0.175,961.0
0,960,0.05,961.0
0,959,0.05,961.0
0,962,0.125,960.0
0,963,0.175,961.0
0,963,0.075,963.0
0,961,0.075,963.0
0,958,0.0,961.0
0,955,0.25,957.0
0,956,0.175,953.0
0,957,0.1,955.0
0,956,0.125,959.0
0,957,0.075,955.0
0,957,0.05,959.0
0,956,0.075,955.0
0,957,0.075,955.0
0,956,0.125,956.0
0,958,0.225,955.0
0,959,0.025,959.0
0,956,0.15,960.0
0,958,0.275,956.0
0,958,0.0,959.0
0,959,0.025,957.0
0,960,0.05,958.0
0,960,0.025,961.0
0,959,0.075,961.0
0,959,0.075,960.0
0,961,0.125,960.0
0,964,0.275,962.0
0,963,0.05,963.0
0,966,0.15,963.0
0,962,0.325,966.0
0,964,0.25,961.0
0,966,0.15,963.0
0,968,0.25,966.0
0,969,0.05,967.0
0,967,0.025,967.0
0,968,0.0,966.0
0,968,0.0,967.0
0,973,0.525,967.0
0,974,0.025,972.0
0,975,0.05,972.0
0,977,0.05,974.0
0,979,0.05,978.0
0,975,0.3,979.0
0,980,0.225,975.0
0,980,0.35,981.0
0,982,0.025,981.0
0,983,0.0,986.0
0,981,0.025,986.0
0,979,0.025,980.0
0,977,0.025,981.0
0,980,0.2,976.0
0,982,0.25,981.0
0,981,0.0,986.0
0,981,0.0,980.0
0,976,0.075,979.0
0,979,0.025,976.0
0,987,0.775,979.0
0,989,0.025,986.0
0,981,0.175,990.0
0,972,0.5,981.0
0,966,0.3,972.0
0,965,0.0,965.0
0,965,0.025,965.0
0,962,0.125,965.0
0,957,0.375,961.0
0,952,0.625,956.0
0,954,0.175,952.0
0,955,0.125,953.0
0,958,0.35,953.0
0,956,0.075,959.0
0,955,0.0,958.0
0,952,0.475,955.0
0,952,0.0,952.0
0,952,0.025,951.0
0,952,0.025,954.0
0,952,0.025,952.0
0,950,0.025,952.0
0,947,0.175,949.0
0,948,0.0,947.0
0,952,0.025,947.0
0,950,0.025,952.0
0,953,0.05,952.0
0,952,0.025,954.0
0,947,0.15,952.0
0,947,0.075,947.0
0,948,0.0,947.0
0,949,0.0,947.0
0,948,0.025,950.0
0,949,0.0,947.0
0,945,0.225,950.0
0,943,0.025,945.0
0,941,0.025,942.0
0,935,0.75,941.0
0,929,0.825,934.0
0,927,0.05,931.0
0,923,0.175,926.0
0,911,0.475,923.0
0,905,0.0,916.0
0,915,0.0,917.0
0,935,0.15,919.0
0,965,1.0,934.0
0,996,1.0,965.0
0,1041,0.7,994.0
0,1102,0.0,1082.0
0,1155,0.0,1002.0
0,1190,0.0,1190.0
0,1196,0.0,1213.0
0,1158,0.05,1200.0
0,1079,0.2,1190.0
0,999,0.05,1137.0
0,942,0.575,994.0
0,919,0.675,942.0
0,917,0.0,919.0
0,925,0.025,919.0
0,932,0.3,923.0
0,936,0.275,931.0
0,937,0.075,939.0
0,938,0.3,939.0
0,938,0.2,939.0
0,937,0.1,939.0
0,933,0.425,938.0
0,936,0.125,931.0
0,936,0.0,937.0
0,939,0.0,935.0
0,938,0.15,940.0
0,937,0.1,937.0
0,936,0.05,938.0
0,936,0.0,939.0
0,939,0.0,939.0
0,938,0.15,940.0
0,937,0.1,937.0
0,935,0.025,938.0
0,932,0.55,934.0
0,935,0.075,931.0
0,936,0.1,935.0
0,937,0.075,936.0
0,935,0.025,938.0
0,933,0.425,935.0
0,932,0.05,931.0
0,934,0.025,930.0
0,936,0.05,935.0
0,935,0.25,936.0
0,935,0.025,935.0
0,935,0.025,935.0
0,933,0.425,935.0
0,934,0.075,931.0
0,934,0.175,935.0
0,935,0.075,935.0
0,933,0.425,935.0
0,933,0.025,931.0
0,933,0.025,934.0
0,934,0.025,934.0
0,935,0.075,935.0
0,938,0.175,935.0
0,935,0.025,937.0
0,932,0.55,935.0
0,931,0.0,931.0
0,934,0.2,930.0
0,935,0.075,935.0
0,935,0.025,935.0
0,934,0.025,935.0
0,933,0.5,935.0
0,934,0.075,934.0
0,933,0.5,935.0
0,934,0.075,934.0
0,934,0.175,935.0
0,934,0.1,935.0
0,933,0.475,935.0
0,931,0.0,934.0
0,933,0.0,931.0
0,936,0.325,933.0
0,937,0.025,939.0
0,936,0.05,935.0
0,936,0.0,939.0
0,931,0.0,939.0
0,935,0.0,931.0
0,937,0.1,935.0
0,935,0.575,937.0
0,936,0.1,935.0
0,934,0.5,936.0
0,932,0.625,935.0
0,933,0.025,931.0
0,934,0.025,934.0
0,936,0.05,935.0
0,935,0.15,936.0
0,933,0.425,935.0
0,931,0.0,934.0
0,930,0.0,931.0
0,931,0.025,932.0
0,930,0.025,932.0
0,929,0.0,930.0
0,924,0.45,930.0
0,922,0.05,923.0
0,924,0.225,919.0
0,925,0.025,923.0
0,926,0.05,923.0
0,926,0.025,931.0
0,923,0.05,926.0
0,926,0.0,923.0
0,928,0.2,926.0
0,930,0.0,931.0
0,931,0.0,931.0
0,930,0.025,930.0
0,931,0.025,930.0
0,931,0.025,930.0
0,935,0.075,930.0
0,940,0.525,935.0
0,942,0.025,941.0
0,941,0.05,942.0
0,941,0.025,941.0
0,942,0.0,941.0
0,945,0.5,942.0
0,947,0.0,945.0
0,950,0.0,947.0
0,951,0.0,952.0
0,950,0.0,952.0
0,947,0.15,949.0
0,952,0.0,947.0
0,953,0.0,952.0
0,953,0.025,954.0
0,955,0.225,952.0
0,953,0.325,953.0
0,950,0.0,952.0
0,953,0.05,949.0
0,956,0.425,954.0
0,958,0.275,956.0
0,958,0.0,959.0
0,960,0.025,957.0
0,959,0.075,961.0
0,959,0.1,960.0
0,960,0.05,960.0
0,962,0.175,961.0
0,961,0.0,962.0
0,961,0.025,961.0
0,959,0.025,961.0
0,959,0.025,960.0
0,959,0.1,960.0
0,961,0.125,959.0
0,961,0.025,962.0
0,957,0.05,961.0
0,953,0.425,956.0
0,956,0.2,952.0
0,958,0.275,956.0
0,958,0.0,959.0
0,956,0.075,957.0
0,954,0.15,955.0
0,954,0.125,953.0
0,954,0.125,953.0
0,953,0.025,953.0
0,954,0.125,952.0
0,956,0.075,953.0
0,956,0.1,956.0
0,955,0.0,955.0
0,954,0.025,953.0
0,956,0.075,953.0
0,957,0.0,956.0
0,956,0.0,955.0
0,955,0.0,955.0
0,954,0.025,954.0
0,955,0.1,953.0
0,957,0.15,954.0
0,957,0.0,956.0
0,956,0.0,956.0
0,952,0.0,955.0
0,952,0.0,952.0
0,953,0.0,952.0
0,952,0.025,954.0
0,952,0.0,952.0
0,951,0.025,952.0
0,951,0.025,950.0
0,947,0.15,952.0
0,948,0.0,947.0
0,951,0.075,947.0
0,953,0.025,952.0
0,953,0.0,954.0
0,951,0.0,952.0
0,948,0.0,952.0
0,951,0.075,947.0
0,952,0.025,952.0
0,950,0.025,952.0
0,951,0.05,949.0
0,951,0.0,952.0
0,949,0.05,951.0
0,950,0.05,950.0
0,954,0.075,949.0
0,952,0.1,953.0
0,951,0.0,952.0
0,949,0.025,952.0
0,949,0.075,950.0
0,948,0.025,950.0
0,950,0.05,947.0
0,952,0.075,949.0
0,952,0.025,951.0
0,949,0.125,952.0
0,949,0.025,950.0
0,950,0.025,950.0
0,951,0.025,949.0
0,952,0.0,952.0
0,951,0.05,952.0
0,949,0.1,951.0
0,947,0.275,950.0
0,951,0.1,947.0
0,954,0.025,952.0
0,953,0.0,953.0
0,952,0.0,952.0
0,952,0.025,952.0
0,954,0.025,952.0
0,956,0.075,953.0
0,960,0.425,956.0
0,960,0.2,961.0
0,963,0.35,961.0
0,962,0.2,963.0
0,962,0.0,961.0
0,964,0.0,962.0
0,968,0.2,963.0
0,970,0.05,967.0
0,968,0.0,970.0
0,969,0.275,967.0
0,970,0.275,967.0
0,971,0.2,969.0
0,974,0.475,970.0
0,978,0.1,975.0
0,976,0.05,978.0
0,975,0.05,976.0
0,970,0.725,975.0
0,971,0.075,970.0
0,972,0.05,970.0
0,976,0.15,972.0
0,977,0.025,975.0
0,975,0.05,976.0
0,976,0.025,975.0
0,973,0.375,974.0
0,978,0.1,972.0
0,979,0.025,978.0
0,983,0.425,979.0
0,984,0.025,986.0
0,981,0.025,986.0
0,981,0.0,981.0
0,977,0.05,981.0
0,972,0.425,976.0
0,966,0.375,972.0
0,965,0.075,965.0
0,961,0.375,965.0
0,960,0.125,961.0
0,958,0.05,961.0
0,957,0.075,957.0
0,953,0.45,956.0
0,949,0.35,952.0
0,949,0.0,950.0
0,951,0.025,950.0
0,951,0.0,952.0
0,949,0.05,952.0
0,951,0.05,950.0
0,949,0.025,952.0
0,947,0.25,950.0
0,948,0.0,947.0
0,950,0.05,947.0
0,951,0.05,952.0
0,949,0.025,951.0
0,947,0.25,950.0
0,947,0.075,947.0
0,948,0.0,947.0
0,949,0.025,947.0
0,951,0.025,950.0
0,950,0.0,952.0
0,949,0.075,949.0
0,947,0.25,950.0
0,950,0.075,948.0
0,950,0.0,952.0
0,944,0.65,949.0
0,936,0.3,945.0
0,926,0.1,939.0
0,923,0.075,931.0
0,919,0.075,926.0
0,912,0.075,924.0
0,912,0.05,919.0
0,923,0.05,919.0
0,943,1.0,923.0
0,972,0.55,942.0
0,1006,1.0,972.0
0,1052,0.0,940.0
0,1110,0.0,1109.0
0,1165,0.05,1163.0
0,1201,0.325,1195.0
0,1215,0.05,1176.0
0,1205,0.0,1230.0
0,1157,0.05,1176.0
0,1077,0.0,1190.0
0,994,0.025,1137.0
0,942,0.475,994.0
0,918,0.05,942.0
0,914,0.0,919.0
0,915,0.0,919.0
0,923,0.0,919.0
0,930,0.55,923.0
0,935,0.1,931.0
0,933,0.425,935.0
0,937,0.075,934.0
0,939,0.125,939.0
0,940,0.025,940.0
0,940,0.075,941.0
0,939,0.175,941.0
0,938,0.15,940.0
0,938,0.2,937.0
0,940,0.1,937.0
0,942,0.025,940.0
0,940,0.075,942.0
0,940,0.075,940.0
0,938,0.225,940.0
0,941,0.075,938.0
0,942,0.025,941.0
0,942,0.05,942.0
0,940,0.0,942.0
0,941,0.025,940.0
0,939,0.1,942.0
0,940,0.025,940.0
0,941,0.025,941.0
0,942,0.1,942.0
0,940,0.125,942.0
0,939,0.125,941.0
0,936,0.05,940.0
0,939,0.425,935.0
0,941,0.025,940.0
0,943,0.05,942.0
0,942,0.0,942.0
0,940,0.0,942.0
0,938,0.175,941.0
0,940,0.1,940.0
0,941,0.025,941.0
0,941,0.0,942.0
0,941,0.025,941.0
0,939,0.225,941.0
0,937,0.075,940.0
0,939,0.125,939.0
0,942,0.025,940.0
0,944,0.6,942.0
0,945,0.0,945.0
0,943,0.0,945.0
0,941,0.0,942.0
0,941,0.025,941.0
0,943,0.35,941.0
0,946,0.025,942.0
0,945,0.15,947.0
0,942,0.0,945.0
0,941,0.0,942.0
0,942,0.0,941.0
0,946,0.65,942.0
0,946,0.075,947.0
0,946,0.075,947.0
0,946,0.075,947.0
0,942,0.075,946.0
0,943,0.0,942.0
0,944,0.025,942.0
0,946,0.025,945.0
0,945,0.15,946.0
0,942,0.0,945.0
0,940,0.0,942.0
0,942,0.0,941.0
0,944,0.575,942.0
0,944,0.025,945.0
0,942,0.0,945.0
0,942,0.0,942.0
0,941,0.0,942.0
0,939,0.225,941.0
0,943,0.5,940.0
0,945,0.025,944.0
0,943,0.0,945.0
0,942,0.0,942.0
0,940,0.0,942.0
0,943,0.45,941.0
0,944,0.025,942.0
0,943,0.0,945.0
0,943,0.025,942.0
0,939,0.1,942.0
0,938,0.125,940.0
0,939,0.125,940.0
0,939,0.075,940.0
0,940,0.0,940.0
0,938,0.15,941.0
0,938,0.175,940.0
0,936,0.05,940.0
0,936,0.425,935.0
0,938,0.25,935.0
0,939,0.125,938.0
0,938,0.125,940.0
0,938,0.175,939.0
0,938,0.175,938.0
0,941,0.05,938.0
0,944,0.325,942.0
0,947,0.025,945.0
0,950,0.1,947.0
0,950,0.0,952.0
0,951,0.0,949.0
0,956,0.225,952.0
0,960,0.475,956.0
0,964,0.825,960.0
0,964,0.15,963.0
0,965,0.1,963.0
0,966,0.075,965.0
0,967,0.0,965.0
0,969,0.025,966.0
0,973,0.25,970.0
0,972,0.0,972.0
0,973,0.1,972.0
0,971,0.125,972.0
0,969,0.05,972.0
0,972,0.225,967.0
0,971,0.0,973.0
0,972,0.0,970.0
0,970,0.1,972.0
0,970,0.05,972.0
0,974,0.125,970.0
0,974,0.025,975.0
0,976,0.05,975.0
0,975,0.05,974.0
0,974,0.175,975.0
0,972,0.0,975.0
0,973,0.1,972.0
0,975,0.025,972.0
0,975,0.05,975.0
0,974,0.175,975.0
0,972,0.025,975.0
0,970,0.075,972.0
0,973,0.1,969.0
0,973,0.025,972.0
0,974,0.0,972.0
0,976,0.0,972.0
0,972,0.55,974.0
0,972,0.0,972.0
0,972,0.0,973.0
0,974,0.0,973.0
0,975,0.0,972.0
0,974,0.15,975.0
0,975,0.025,975.0
0,973,0.35,974.0
0,971,0.125,972.0
0,975,0.375,972.0
0,971,0.425,975.0
0,972,0.0,972.0
0,970,0.0,972.0
0,969,0.2,969.0
0,970,0.2,967.0
0,971,0.2,969.0
0,973,0.225,972.0
0,971,0.125,972.0
0,971,0.05,972.0
0,967,0.05,972.0
0,969,0.025,966.0
0,970,0.05,970.0
0,972,0.15,969.0
0,974,0.075,973.0
0,970,0.6,975.0
0,967,0.05,970.0
0,969,0.275,967.0
0,969,0.05,970.0
0,969,0.05,967.0
0,970,0.4,967.0
0,970,0.15,969.0
0,968,0.075,969.0
0,970,0.275,967.0
0,970,0.05,969.0
0,971,0.175,969.0
0,971,0.125,972.0
0,969,0.1,972.0
0,966,0.1,967.0
0,967,0.075,965.0
0,969,0.025,966.0
0,969,0.05,970.0
0,968,0.0,970.0
0,967,0.025,967.0
0,965,0.175,966.0
0,967,0.1,965.0
0,970,0.025,966.0
0,970,0.05,970.0
0,969,0.05,970.0
0,966,0.1,967.0
0,964,0.1,965.0
0,966,0.15,963.0
0,968,0.25,967.0
0,969,0.025,969.0
0,970,0.025,970.0
0,970,0.15,969.0
0,969,0.2,969.0
0,970,0.2,970.0
0,977,0.8,970.0
0,979,0.05,976.0
0,979,0.025,979.0
0,979,0.025,979.0
0,977,0.3,979.0
0,979,0.05,976.0
0,983,0.4,979.0
0,986,0.0,981.0
0,985,0.025,986.0
0,984,0.025,986.0
0,982,0.025,981.0
0,985,0.0,981.0
0,989,0.0,986.0
0,991,0.0,990.0
0,994,0.1,992.0
0,996,0.025,994.0
0,992,0.0,994.0
0,993,0.0,994.0
0,991,0.05,994.0
0,990,0.0,992.0
0,989,0.0,992.0
0,988,0.0,990.0
0,989,0.0,986.0
0,989,0.0,990.0
0,992,0.05,990.0
0,997,0.15,994.0
0,1001,0.275,994.0
0,1001,0.3,996.0
0,994,0.025,996.0
0,988,0.0,994.0
0,985,0.125,986.0
0,982,0.0,986.0
0,980,0.0,981.0
0,977,0.0,981.0
0,971,0.725,976.0
0,967,0.175,972.0
0,968,0.0,966.0
0,966,0.05,967.0
0,966,0.0,965.0
0,966,0.0,965.0
0,963,0.025,965.0
0,966,0.15,963.0
0,965,0.125,966.0
0,966,0.025,965.0
0,964,0.0,965.0
0,962,0.3,963.0
0,962,0.05,961.0
0,962,0.0,962.0
0,963,0.0,962.0
0,964,0.15,963.0
0,964,0.05,963.0
0,961,0.375,963.0
0,960,0.1,961.0
0,961,0.0,961.0
0,963,0.025,962.0
0,961,0.075,963.0
0,963,0.325,961.0
0,963,0.075,963.0
0,961,0.075,963.0
0,961,0.025,961.0
0,960,0.075,961.0
0,955,0.55,961.0
0,946,0.925,954.0
0,938,0.925,947.0
0,931,0.725,938.0
0,925,0.025,931.0
0,921,0.15,923.0
0,924,0.325,919.0
0,940,1.0,923.0
0,962,0.85,941.0
0,983,0.8,962.0
0,1007,0.775,981.0
0,1036,0.325,1052.0
0,1075,0.175,1080.0
0,1124,0.45,1137.0
0,1162,0.175,1165.0
0,1193,0.0,1195.0
0,1218,0.125,1213.0
0,1230,0.0,1230.0
0,1223,0.175,1225.0
0,1179,0.7,1230.0
0,1096,0.075,1195.0
0,1004,0.0,1006.0
0,943,0.65,940.0
0,927,0.025,942.0
0,934,0.425,931.0
0,946,0.975,935.0
0,953,0.425,946.0
0,954,0.125,952.0
0,955,0.1,953.0
0,953,0.075,953.0
0,955,0.225,952.0
0,956,0.075,953.0
0,952,0.525,956.0
0,950,0.0,952.0
0,950,0.1,952.0
0,951,0.0,949.0
0,952,0.025,952.0
0,951,0.05,952.0
0,949,0.05,951.0
0,948,0.025,950.0
0,950,0.05,947.0
0,951,0.05,952.0
0,953,0.05,951.0
0,951,0.075,954.0
0,950,0.0,952.0
0,949,0.0,949.0
0,951,0.025,950.0
0,951,0.0,952.0
0,955,0.075,951.0
0,954,0.075,954.0
0,953,0.0,953.0
0,951,0.0,952.0
0,953,0.05,952.0
0,954,0.0,952.0
0,954,0.025,953.0
0,951,0.0,953.0
0,951,0.0,950.0
0,950,0.0,951.0
0,949,0.0,949.0
0,953,0.15,950.0
0,953,0.0,952.0
0,950,0.075,954.0
0,949,0.025,949.0
0,948,0.025,950.0
0,949,0.0,947.0
0,950,0.025,950.0
0,954,0.15,949.0
0,952,0.025,953.0
0,951,0.0,952.0
0,949,0.025,949.0
0,952,0.1,947.0
0,952,0.0,952.0
0,953,0.025,952.0
0,952,0.0,954.0
0,952,0.0,952.0
0,948,0.125,952.0
0,952,0.025,947.0
0,954,0.175,952.0
0,957,0.175,953.0
0,957,0.0,956.0
0,955,0.0,956.0
0,951,0.35,953.0
0,950,0.0,952.0
0,953,0.05,949.0
0,954,0.0,954.0
0,953,0.0,953.0
0,951,0.0,952.0
0,950,0.0,952.0
0,949,0.0,949.0
0,950,0.025,950.0
0,951,0.05,949.0
0,952,0.0,951.0
0,951,0.05,952.0
0,952,0.025,951.0
0,951,0.05,952.0
0,954,0.0,951.0
0,955,0.025,954.0
0,951,0.35,953.0
0,953,0.0,952.0
0,950,0.1,954.0
0,953,0.075,949.0
0,951,0.0,954.0
0,954,0.0,950.0
0,953,0.025,954.0
0,950,0.0,954.0
0,951,0.0,949.0
0,949,0.025,951.0
0,951,0.0,950.0
0,952,0.0,951.0
0,952,0.0,952.0
0,950,0.125,952.0
0,949,0.0,949.0
0,952,0.0,950.0
0,954,0.0,952.0
0,957,0.175,953.0
0,956,0.05,956.0
0,956,0.0,955.0
0,956,0.025,955.0
0,960,0.175,955.0
0,962,0.4,961.0
0,964,0.05,962.0
0,967,0.225,963.0
0,968,0.0,966.0
0,969,0.125,967.0
0,971,0.125,970.0
0,974,0.075,972.0
0,973,0.15,975.0
0,974,0.025,972.0
0,974,0.175,975.0
0,970,0.325,975.0
0,973,0.05,970.0
0,976,0.0,972.0
0,974,0.2,974.0
0,973,0.075,975.0
0,973,0.025,972.0
0,971,0.0,972.0
0,972,0.0,972.0
0,976,0.15,973.0
0,979,0.05,974.0
0,977,0.025,979.0
0,974,0.175,976.0
0,972,0.025,975.0
0,974,0.075,972.0
0,974,0.175,975.0
0,974,0.125,975.0
0,976,0.025,975.0
0,974,0.2,974.0
0,971,0.325,974.0
0,972,0.0,972.0
0,974,0.025,973.0
0,973,0.375,974.0
0,970,0.05,972.0
0,973,0.075,970.0
0,970,0.05,972.0
0,973,0.05,970.0
0,972,0.0,972.0
0,973,0.0,972.0
0,972,0.0,972.0
0,971,0.0,973.0
0,968,0.075,970.0
0,969,0.2,967.0
0,969,0.125,970.0
0,971,0.375,970.0
0,971,0.05,972.0
0,969,0.125,972.0
0,967,0.025,970.0
0,968,0.05,966.0
0,968,0.0,969.0
0,970,0.275,969.0
0,969,0.0,969.0
0,968,0.1,970.0
0,966,0.125,969.0
0,966,0.025,965.0
0,968,0.05,965.0
0,970,0.025,969.0
0,969,0.0,969.0
0,965,0.1,970.0
0,965,0.075,965.0
0,963,0.075,965.0
0,966,0.2,963.0
0,966,0.025,965.0
0,965,0.075,965.0
0,963,0.05,965.0
0,962,0.225,963.0
0,965,0.075,962.0
0,966,0.025,965.0
0,965,0.075,965.0
0,966,0.025,965.0
0,964,0.025,965.0
0,962,0.275,963.0
0,962,0.0,962.0
0,963,0.025,962.0
0,968,0.425,963.0
0,964,0.1,969.0
0,963,0.05,963.0
0,961,0.075,963.0
0,960,0.1,961.0
0,962,0.05,961.0
0,963,0.0,962.0
0,965,0.1,963.0
0,963,0.05,966.0
0,961,0.075,963.0
0,962,0.25,961.0
0,964,0.0,962.0
0,964,0.025,963.0
0,965,0.025,963.0
0,964,0.0,965.0
0,960,0.575,963.0
0,961,0.225,961.0
0,960,0.1,961.0
0,963,0.275,961.0
0,962,0.175,963.0
0,962,0.0,962.0
0,961,0.0,962.0
0,961,0.025,961.0
0,963,0.375,961.0
0,967,0.3,963.0
0,967,0.0,966.0
0,965,0.05,966.0
0,965,0.05,965.0
0,969,0.1,965.0
0,973,0.3,970.0
0,977,0.05,972.0
0,977,0.2,974.0
0,976,0.175,974.0
0,977,0.075,975.0
0,978,0.05,976.0
