annotCls,ecg,anomalyScore,multiStepBestPredictions.1
0,931,1.0,None
0,935,1.0,931.0
0,935,1.0,939.0
0,939,0.0,939.0
0,943,0.0,941.8
0,947,0.0,945.8
0,948,0.0,951.0
0,951,0.0,952.0
0,949,0.0,955.0
0,951,0.0,953.0
0,951,0.0,955.0
0,952,0.0,955.0
0,949,0.0,953.89
0,948,0.0,950.89
0,947,0.0,949.89
0,950,0.0,948.89
0,952,0.0,951.89
0,952,0.0,954.223
0,951,0.0,954.223
0,947,0.0,953.223
0,947,0.0,948.2561
0,946,0.0,948.2561
0,947,0.0,947.2561
0,950,0.0,948.2561
0,949,0.0,949.8492
0,946,0.0,950.77927
0,944,0.0,947.77927
0,946,0.0,945.77927
0,948,0.0,947.77927
0,947,0.0,949.77927
0,949,0.0,948.77927
0,949,0.0,950.77927
0,949,0.0,950.77927
0,949,0.0,949.046108
0,954,0.0,949.046108
0,953,0.0,955.77927
0,950,0.0,954.77927
0,947,0.0,951.77927
0,945,0.0,947.345489
0,946,0.0,944.1322756
0,947,0.0,946.345489
0,946,0.0,947.345489
0,945,0.0,945.69259292
0,944,0.0,944.69259292
0,942,0.0,943.69259292
0,945,0.0,941.69259292
0,945,0.0,945.345489
0,947,0.0,944.69259292
0,944,0.0,946.69259292
0,943,0.0,944.384815044
0,942,0.0,943.384815044
0,942,1.0,942.345489
0,944,1.0,942.0
0,944,1.0,946.0
0,943,1.0,944.0
0,936,1.0,942.0
0,933,1.0,929.0
0,936,1.0,930.0
0,939,1.0,939.0
0,942,1.0,942.0
0,941,1.0,945.0
0,937,1.0,940.0
0,934,1.0,933.0
0,938,1.0,934.4725037
0,940,1.0,938.4725037
0,939,1.0,940.4725037
0,939,0.3,939.4725037
0,938,0.0,939.4725037
0,936,0.0,939.407
0,941,0.175,936.6849
0,942,0.0,941.6849
0,941,0.0,942.6849
0,936,0.2,941.6849
0,933,0.1,936.6849
0,932,0.0,933.6849
0,934,0.025,932.6849
0,935,0.0,934.6849
0,936,0.0,935.6849
0,938,0.0,936.6849
0,940,0.0,938.6849
0,940,0.0,941.07943
0,941,0.0,941.07943
0,943,0.0,942.07943
0,946,0.0,944.07943
0,946,0.0,947.07943
0,945,0.0,947.07943
0,948,0.0,946.07943
0,951,0.0,949.07943
0,951,0.0,952.07943
0,954,0.0,952.07943
0,950,0.05,955.07943
0,950,0.0,947.584
0,955,0.0,951.07943
0,957,0.0,956.041526813
0,961,0.0,958.07943
0,964,0.0,962.041526813
0,964,0.0,965.07943
0,961,0.025,965.07943
0,958,0.025,960.32928961
0,958,0.0,957.32928961
0,959,0.0,959.07943
0,959,0.0,960.07943
0,958,0.0,960.07943
0,955,0.0,959.07943
0,956,0.0,954.945
0,958,0.0,957.07943
0,956,0.0,959.07943
0,956,0.0,956.5615
0,955,0.0,956.5615
0,960,0.0,956.07943
0,963,0.0,961.041526813
0,965,0.0,964.07943
0,962,0.0,966.07943
0,954,0.1,962.5615
0,951,0.0,953.842
0,948,0.0,952.07943
0,945,0.0,946.664
0,945,0.0,943.664
0,943,0.0,945.5615
0,942,0.0,942.306501635
0,938,0.0,941.306501635
0,937,0.0,938.5615
0,935,0.0,936.555601
0,936,0.0,934.555601
0,935,0.0,935.555601
0,937,0.0,934.555601
0,937,0.0,935.787312
0,933,0.0,935.787312
0,930,0.0,933.5615
0,932,0.0,928.787312
0,934,0.0,930.787312
0,936,0.0,932.787312
0,932,0.0,934.787312
0,932,0.0,932.5615
0,930,0.0,931.7511184
0,932,0.0,929.7511184
0,931,0.0,931.7511184
0,934,0.0,930.7511184
0,933,0.0,934.429068769
0,933,0.0,932.7511184
0,930,0.0,932.7511184
0,932,0.0,929.7511184
0,935,0.0,931.7511184
0,933,0.0,935.429068769
0,924,0.0,933.72578288
0,916,0.075,923.85313
0,910,0.0,914.8034642
0,908,0.0,909.32928961
0,902,0.0,908.72578288
0,897,0.0,901.32928961
0,902,0.0,897.379073
0,917,0.4,900.8034642
0,942,0.825,917.429068769
0,969,0.6,942.429068769
0,991,0.0,976.800348138
0,1014,0.025,998.800348138
0,1035,0.025,1021.80034814
0,1063,0.0,1042.80034814
0,1098,0.025,1070.80034814
0,1137,0.075,1105.80034814
0,1165,0.05,1144.80034814
0,1187,0.0,1172.80034814
0,1207,0.0,1215.0
0,1213,0.025,1235.0
0,1199,0.0,1220.80034814
0,1139,0.0,1198.85313
0,1058,0.0,1137.8034642
0,978,0.0,1056.8034642
0,922,0.25,976.8034642
0,902,0.15,929.800348138
0,900,0.225,890.660243697
0,908,0.125,888.660243697
0,918,0.0,896.660243697
0,924,0.0,920.4
0,925,0.0,926.6889207
0,924,0.0,927.6889207
0,921,0.0,926.6889207
0,925,0.0,921.596371
0,926,0.0,925.596371
0,929,0.0,927.070185801
0,926,0.0,930.070185801
0,923,0.0,927.070185801
0,923,0.0,922.711094092
0,922,0.0,922.5174597
0,924,0.0,921.66222179
0,925,0.0,923.66222179
0,925,0.0,925.363555253
0,922,0.0,925.363555253
0,923,0.0,922.363555253
0,923,0.0,923.363555253
0,926,0.0,923.554488677
0,923,0.0,926.388142074
0,922,0.0,923.388142074
0,921,0.0,921.371699452
0,921,0.0,920.371699452
0,920,0.0,920.371699452
0,923,0.0,919.371699452
0,924,0.0,922.371699452
0,923,0.0,924.460189616
0,922,0.0,923.622132731
0,921,0.0,922.135492912
0,924,0.0,921.135492912
0,922,0.0,924.135492912
0,925,0.0,922.994845038
0,923,0.0,925.994845038
0,919,0.0,923.994845038
0,918,0.0,919.096391527
0,922,0.0,918.096391527
0,922,0.0,922.096391527
0,923,0.0,922.096391527
0,924,0.0,923.096391527
0,919,0.0,924.367474069
0,922,0.0,919.557231848
0,919,0.0,922.557231848
0,922,0.0,919.557231848
0,923,0.0,922.557231848
0,922,0.0,923.557231848
0,922,0.0,922.690062294
0,920,0.0,922.690062294
0,923,0.0,920.690062294
0,925,0.0,923.690062294
0,925,0.0,926.383043606
0,925,0.0,926.383043606
0,922,0.0,926.383043606
0,918,0.0,923.383043606
0,922,0.0,919.383043606
0,923,0.0,923.383043606
0,923,0.0,924.383043606
0,920,0.0,924.268130524
0,919,0.0,920.887691367
0,919,0.0,919.887691367
0,919,0.0,919.887691367
0,921,0.0,919.887691367
0,923,0.0,921.887691367
0,923,0.0,923.887691367
0,919,0.0,924.221383957
0,918,0.0,919.85496877
0,919,0.0,918.85496877
0,919,0.0,919.85496877
0,919,0.0,919.85496877
0,918,0.0,919.85496877
0,916,0.0,918.85496877
0,914,0.0,916.85496877
0,915,0.0,914.85496877
0,918,0.0,915.85496877
0,919,0.0,918.85496877
0,918,0.0,919.85496877
0,916,0.0,918.85496877
0,912,0.0,916.85496877
0,911,0.0,912.85496877
0,912,0.0,911.85496877
0,914,0.0,912.85496877
0,913,0.0,914.85496877
0,911,0.0,913.85496877
0,910,0.0,911.85496877
0,912,0.0,910.85496877
0,916,0.0,912.85496877
0,918,0.0,916.85496877
0,916,0.0,918.85496877
0,919,0.0,916.85496877
0,920,0.0,919.85496877
0,926,0.0,920.85496877
0,929,0.0,926.85496877
0,932,0.0,929.85496877
0,933,0.0,932.85496877
0,934,0.0,933.85496877
0,934,0.0,934.85496877
0,939,0.0,934.85496877
0,943,0.0,939.85496877
0,943,0.0,943.85496877
0,945,0.0,943.85496877
0,946,0.0,945.85496877
0,946,0.0,946.85496877
0,949,0.0,946.85496877
0,953,0.0,949.85496877
0,954,0.0,953.85496877
0,952,0.0,954.85496877
0,954,0.0,952.85496877
0,950,0.0,954.85496877
0,951,0.0,950.85496877
0,954,0.0,951.85496877
0,956,0.0,954.85496877
0,954,0.0,956.85496877
0,954,0.0,954.85496877
0,954,0.0,954.85496877
0,955,0.0,954.85496877
0,955,0.0,955.85496877
0,954,0.0,955.85496877
0,954,0.0,954.85496877
0,954,0.0,954.85496877
0,953,0.0,954.85496877
0,957,0.0,953.85496877
0,958,0.0,957.85496877
0,956,0.0,958.85496877
0,959,0.0,956.85496877
0,956,0.0,959.85496877
0,954,0.0,956.85496877
0,956,0.0,954.85496877
0,956,0.0,955.23222012
0,959,0.0,955.23222012
0,954,0.0,959.85496877
0,956,0.0,954.85496877
0,952,0.0,953.962554084
0,952,0.0,949.962554084
0,955,0.0,952.85496877
0,958,0.0,955.85496877
0,956,0.0,958.85496877
0,956,0.0,956.85496877
0,951,0.0,956.85496877
0,953,0.0,951.85496877
0,952,0.0,953.85496877
0,954,0.0,951.173787859
0,953,0.0,953.173787859
0,950,0.0,953.021651501
0,952,0.0,949.715156051
0,952,0.0,951.715156051
0,955,0.0,951.715156051
0,955,0.0,954.715156051
0,955,0.0,954.715156051
0,954,0.0,954.715156051
0,951,0.0,953.715156051
0,952,0.0,950.500609236
0,953,0.0,951.500609236
0,951,0.0,952.500609236
0,949,0.0,950.950426465
0,950,0.0,948.950426465
0,947,0.0,949.950426465
0,948,0.0,946.950426465
0,951,0.0,947.950426465
0,951,0.0,950.950426465
0,950,0.0,950.950426465
0,949,0.0,949.950426465
0,947,0.0,948.950426465
0,949,0.0,946.950426465
0,950,0.0,948.950426465
0,951,0.0,949.950426465
0,953,0.0,950.950426465
0,952,0.0,952.950426465
0,952,0.0,952.565298525
0,952,0.0,952.565298525
0,954,0.0,952.565298525
0,955,0.0,954.565298525
0,956,0.0,955.995708968
0,955,0.0,956.995708968
0,953,0.0,955.995708968
0,953,0.0,953.995708968
0,955,0.0,953.096996277
0,957,0.0,955.067897394
0,956,0.0,957.067897394
0,953,0.0,956.067897394
0,950,0.0,953.067897394
0,953,0.0,949.147528176
0,955,0.0,952.147528176
0,956,0.0,955.303269723
0,954,0.0,956.303269723
0,953,0.0,954.303269723
0,953,0.0,952.612288806
0,953,0.0,952.428602164
0,957,0.0,952.600021515
0,962,0.0,956.720015061
0,966,0.0,961.720015061
0,967,0.0,965.720015061
0,966,0.0,966.720015061
0,970,0.0,965.720015061
0,972,0.0,969.720015061
0,975,0.0,971.720015061
0,974,0.0,974.720015061
0,975,0.0,973.720015061
0,975,0.0,974.720015061
0,978,0.0,974.720015061
0,980,0.0,977.720015061
0,981,0.0,979.720015061
0,980,0.0,980.720015061
0,977,0.0,979.720015061
0,976,0.0,976.720015061
0,976,0.0,975.720015061
0,976,0.0,975.720015061
0,975,0.0,975.720015061
0,975,0.0,974.720015061
0,976,0.0,974.720015061
0,974,0.0,975.720015061
0,971,0.0,973.720015061
0,972,0.0,970.720015061
0,970,0.0,971.720015061
0,972,0.0,969.720015061
0,972,0.0,971.720015061
0,976,0.0,971.720015061
0,981,0.0,975.720015061
0,983,0.0,980.720015061
0,977,0.0,982.720015061
0,969,0.0,976.720015061
0,966,0.0,968.720015061
0,964,0.0,965.720015061
0,963,0.0,963.720015061
0,960,0.0,962.720015061
0,959,0.0,959.720015061
0,955,0.0,958.720015061
0,953,0.0,954.720015061
0,951,0.0,952.720015061
0,951,0.0,950.204010542
0,954,0.0,950.204010542
0,954,0.0,953.204010542
0,953,0.0,954.34280738
0,952,0.0,953.239965166
0,951,0.0,951.867975616
0,950,0.0,950.867975616
0,951,0.0,949.867975616
0,954,0.0,950.867975616
0,956,0.0,953.867975616
0,955,0.0,956.807582931
0,953,0.0,955.807582931
0,953,0.0,953.807582931
0,954,0.0,952.965308052
0,955,0.0,953.975715636
0,955,0.0,955.283000945
0,951,0.0,955.283000945
0,951,0.0,951.283000945
0,949,0.0,951.283000945
0,944,0.0,949.283000945
0,938,0.0,944.283000945
0,928,0.0,938.283000945
0,926,0.0,928.283000945
0,918,0.0,926.283000945
0,911,0.0,918.283000945
0,916,0.0,911.283000945
0,934,0.075,916.283000945
0,961,0.1,934.283000945
0,991,0.075,961.283000945
0,1021,0.05,991.283000945
0,1064,0.075,1021.28300095
0,1121,0.125,1064.28300095
0,1170,0.05,1120.81158822
0,1202,0.0,1170.28300095
0,1218,0.0,1202.28300095
0,1230,0.0,1218.28300095
0,1242,0.0,1230.28300095
0,1252,0.0,1242.28300095
0,1234,0.0,1252.28300095
0,1175,0.5,1234.28300095
0,1083,0.2,1175.74629091
0,990,0.075,1082.81158822
0,937,0.55,989.811588221
0,921,0.925,937.746290911
0,928,0.025,921.85496877
0,939,0.1,928.283000945
0,946,0.075,996.0
0,942,0.0,946.283000945
0,943,0.025,942.283000945
0,946,0.0,943.283000945
0,945,0.0,946.283000945
0,944,0.025,945.283000945
0,943,0.025,944.283000945
0,941,0.025,943.283000945
0,940,0.0,941.283000945
0,945,0.0,940.283000945
0,944,0.0,945.283000945
0,941,0.0,944.283000945
0,939,0.0,941.283000945
0,937,0.0,939.283000945
0,940,0.0,937.283000945
0,943,0.0,940.283000945
0,944,0.0,943.283000945
0,942,0.0,944.283000945
0,941,0.0,942.283000945
0,940,0.0,941.283000945
0,940,0.0,940.283000945
0,943,0.0,940.283000945
0,941,0.0,943.283000945
0,942,0.0,941.283000945
0,940,0.0,942.283000945
0,937,0.0,940.283000945
0,940,0.0,937.283000945
0,942,0.0,940.283000945
0,942,0.0,942.283000945
0,943,0.0,942.283000945
0,939,0.0,943.283000945
0,937,0.0,939.283000945
0,940,0.0,937.283000945
0,940,0.0,940.283000945
0,940,0.0,940.283000945
0,941,0.0,940.283000945
0,938,0.0,941.283000945
0,936,0.0,938.283000945
0,940,0.0,936.283000945
0,940,0.0,940.283000945
0,942,0.0,940.283000945
0,941,0.0,942.283000945
0,940,0.0,941.283000945
0,938,0.0,940.283000945
0,941,0.0,938.283000945
0,942,0.0,941.283000945
0,943,0.0,942.283000945
0,941,0.0,944.06879411
0,941,0.0,942.06879411
0,938,0.0,941.148155877
0,938,0.0,938.103709114
0,940,0.0,938.103709114
0,942,0.0,940.103709114
0,941,0.0,942.103709114
0,942,0.0,941.67259638
0,938,0.0,942.170817466
0,939,0.0,938.419572226
0,939,0.0,939.419572226
0,941,0.0,939.419572226
0,942,0.0,941.419572226
0,939,0.0,942.893700558
0,937,0.0,939.925590391
0,938,0.0,937.925590391
0,942,0.0,938.925590391
0,941,0.0,942.925590391
0,941,0.0,942.847913274
0,938,0.0,941.993539291
0,938,0.0,938.695477504
0,937,0.0,938.695477504
0,939,0.0,937.695477504
0,942,0.0,939.695477504
0,940,0.0,942.695477504
0,937,0.0,941.386834253
0,936,0.0,938.386834253
0,936,0.0,937.386834253
0,942,0.0,937.386834253
0,941,0.0,943.386834253
0,939,0.0,943.770783977
0,936,0.0,940.639548784
0,935,0.0,937.639548784
0,936,0.0,936.639548784
0,938,0.0,937.639548784
0,940,0.0,939.639548784
0,940,0.0,941.639548784
0,939,0.0,941.639548784
0,939,0.0,940.639548784
0,939,0.0,940.639548784
0,939,0.0,940.639548784
0,940,0.0,940.639548784
0,939,0.0,941.639548784
0,937,0.0,940.639548784
0,936,0.0,938.639548784
0,939,0.0,937.639548784
0,941,0.0,940.639548784
0,943,0.0,942.639548784
0,945,0.0,944.747684149
0,945,0.0,946.747684149
0,945,0.0,946.747684149
0,950,0.0,946.747684149
0,952,0.0,951.747684149
0,955,0.0,953.747684149
0,958,0.0,956.747684149
0,958,0.0,959.747684149
0,957,0.0,959.747684149
0,960,0.0,958.747684149
0,961,0.0,961.747684149
0,962,0.0,962.747684149
0,964,0.0,963.747684149
0,961,0.0,965.747684149
0,958,0.0,962.747684149
0,960,0.0,959.747684149
0,961,0.0,961.747684149
0,963,0.0,962.747684149
0,962,0.0,964.747684149
0,963,0.0,963.747684149
0,959,0.0,964.747684149
0,960,0.0,960.747684149
0,962,0.0,961.747684149
0,965,0.0,963.747684149
0,963,0.0,966.747684149
0,960,0.0,964.747684149
0,962,0.0,961.747684149
0,961,0.0,963.747684149
0,963,0.0,962.747684149
0,964,0.0,964.747684149
0,964,0.0,965.747684149
0,962,0.0,965.747684149
0,961,0.0,963.747684149
0,962,0.0,962.747684149
0,964,0.0,963.747684149
0,965,0.0,965.747684149
0,963,0.0,966.747684149
0,962,0.0,964.747684149
0,960,0.0,963.747684149
0,960,0.0,961.747684149
0,962,0.0,961.747684149
0,962,0.0,963.747684149
0,960,0.0,963.747684149
0,956,0.0,961.747684149
0,958,0.0,957.747684149
0,955,0.0,959.747684149
0,959,0.0,956.747684149
0,960,0.0,960.747684149
0,959,0.0,961.747684149
0,956,0.0,960.747684149
0,957,0.0,957.747684149
0,959,0.0,958.747684149
0,957,0.0,960.747684149
0,958,0.0,958.747684149
0,957,0.0,959.747684149
0,955,0.0,958.747684149
0,955,0.0,956.747684149
0,955,0.0,956.747684149
0,957,0.0,956.747684149
0,959,0.0,958.747684149
0,959,0.0,960.747684149
0,958,0.0,960.747684149
0,953,0.0,959.747684149
0,952,0.0,954.747684149
0,956,0.0,953.747684149
0,957,0.0,957.747684149
0,955,0.0,958.747684149
0,954,0.0,956.747684149
0,953,0.0,955.747684149
0,954,0.0,954.747684149
0,955,0.0,955.747684149
0,954,0.0,956.747684149
0,953,0.0,955.747684149
0,950,0.0,954.747684149
0,952,0.0,951.747684149
0,952,0.0,953.747684149
0,954,0.0,953.747684149
0,953,0.0,955.747684149
0,955,0.0,954.747684149
0,955,0.0,956.747684149
0,952,0.0,956.747684149
0,953,0.0,953.747684149
0,957,0.0,954.747684149
0,956,0.0,958.747684149
0,957,0.0,957.747684149
0,954,0.0,958.747684149
0,952,0.0,955.747684149
0,954,0.0,953.747684149
0,957,0.0,955.747684149
0,958,0.0,958.747684149
0,960,0.0,959.747684149
0,961,0.0,961.747684149
0,958,0.0,962.747684149
0,963,0.0,959.747684149
0,965,0.0,964.747684149
0,968,0.0,966.747684149
0,969,0.0,969.747684149
0,969,0.0,970.747684149
0,969,0.0,970.747684149
0,968,0.0,970.747684149
0,975,0.0,969.747684149
0,978,0.0,976.747684149
0,979,0.0,979.747684149
0,979,0.0,980.747684149
0,981,0.0,980.747684149
0,981,0.0,982.747684149
0,983,0.0,982.747684149
0,982,0.0,984.747684149
0,980,0.0,983.747684149
0,977,0.0,981.747684149
0,971,0.0,978.747684149
0,976,0.0,972.747684149
0,980,0.0,977.747684149
0,980,0.0,981.747684149
0,981,0.0,981.747684149
0,979,0.0,982.747684149
0,981,0.0,980.747684149
0,986,0.0,982.747684149
0,990,0.0,987.747684149
0,989,0.0,991.747684149
0,980,0.0,990.747684149
0,974,0.0,980.288670463
0,967,0.0,975.747684149
0,967,0.0,968.747684149
0,968,0.0,968.747684149
0,967,0.0,969.747684149
0,964,0.0,968.747684149
0,962,0.0,965.747684149
0,958,0.0,963.747684149
0,955,0.0,959.747684149
0,955,0.0,956.747684149
0,954,0.0,956.747684149
0,955,0.0,955.747684149
0,953,0.0,956.747684149
0,951,0.0,954.747684149
0,953,0.0,952.747684149
0,955,0.0,954.747684149
0,955,0.0,956.747684149
0,953,0.0,956.747684149
0,952,0.0,954.747684149
0,949,0.0,953.747684149
0,949,0.0,950.747684149
0,951,0.0,950.747684149
0,950,0.0,952.747684149
0,949,0.0,951.747684149
0,949,0.0,950.747684149
0,946,0.0,950.747684149
0,948,0.0,947.747684149
0,947,0.0,949.747684149
0,950,0.0,948.747684149
0,948,0.0,951.747684149
0,948,0.0,949.747684149
0,947,0.0,949.747684149
0,947,0.0,948.747684149
0,949,0.0,948.747684149
0,945,0.0,950.747684149
0,938,0.0,945.831448527
0,930,0.0,939.747684149
0,925,0.0,930.831448527
0,922,0.0,926.747684149
0,920,0.0,922.831448527
0,911,0.0,921.747684149
0,909,0.0,911.831448527
0,916,0.0,910.747684149
0,937,0.0,917.747684149
0,958,0.0,938.747684149
0,974,0.0,959.747684149
0,987,0.0,975.747684149
0,1003,0.0,988.747684149
0,1027,0.0,1004.74768415
0,1063,0.05,1028.74768415
0,1113,0.125,1063.74629091
0,1157,0.075,1113.74629091
0,1190,0.0,1157.74629091
0,1210,0.0,1234.0
0,1219,0.0,1211.74768415
0,1204,0.025,1220.74768415
0,1153,0.375,1204.83144853
0,1076,0.6,1153.74629091
0,995,0.1,1076.74629091
0,941,0.575,995.746290911
0,914,0.475,864.0
0,913,0.1,913.998478139
0,925,0.05,898.023378904
0,936,0.0,910.023378904
0,943,0.025,921.023378904
0,942,0.025,928.023378904
0,940,0.0,927.023378904
0,937,0.0,929.216365233
0,941,0.0,926.216365233
0,941,0.0,930.216365233
0,943,0.0,934.651455663
0,942,0.0,938.556018964
0,942,0.0,937.556018964
0,938,0.0,938.589213275
0,941,0.0,935.612449292
0,942,0.0,938.612449292
0,942,0.0,941.228714505
0,941,0.0,941.760100153
0,942,0.0,940.832070107
0,939,0.0,941.582449075
0,942,0.0,939.007714353
0,941,0.0,942.007714353
0,942,0.0,941.905400047
0,940,0.0,942.333780033
0,939,0.0,940.533646023
0,937,0.0,939.533646023
0,939,0.0,937.533646023
0,942,0.0,939.533646023
0,941,0.0,942.533646023
0,939,0.0,942.273552216
0,939,0.0,939.591486551
0,937,0.0,939.591486551
0,940,0.0,937.591486551
0,940,0.0,940.591486551
0,942,0.0,940.591486551
0,942,0.0,942.591486551
0,938,0.0,943.014040586
0,938,0.0,938.70982841
0,940,0.0,938.70982841
0,941,0.0,940.70982841
0,943,0.0,941.70982841
0,941,0.0,943.796879887
0,942,0.0,941.796879887
0,937,0.0,941.957815921
0,938,0.0,937.270471145
0,941,0.0,938.270471145
0,945,0.0,941.270471145
0,941,0.0,946.089329801
0,938,0.0,942.089329801
0,937,0.0,937.562530861
0,940,0.0,936.562530861
0,939,0.0,939.562530861
0,940,0.0,938.562530861
0,939,0.0,939.562530861
0,940,0.0,938.562530861
0,938,0.0,939.562530861
0,939,0.0,937.562530861
0,942,0.0,938.562530861
0,942,0.0,941.562530861
0,942,0.0,942.593771603
0,941,0.0,942.415640122
0,941,0.0,941.290948085
0,938,0.0,940.90366366
0,943,0.0,937.932564562
0,944,0.0,942.932564562
0,946,0.0,943.932564562
0,942,0.0,945.932564562
0,943,0.0,941.932564562
0,944,0.0,941.752795193
0,946,0.0,942.752795193
0,945,0.0,944.752795193
0,944,0.0,943.752795193
0,943,0.0,942.752795193
0,942,0.0,941.752795193
0,942,0.0,940.752795193
0,942,0.0,940.826956635
0,943,0.0,941.178869645
0,942,0.0,942.425208751
0,942,0.0,941.425208751
0,937,0.0,941.297646126
0,941,0.0,936.508352288
0,941,0.0,940.508352288
0,943,0.0,941.855846602
0,941,0.0,943.599092621
0,939,0.0,941.599092621
0,934,0.0,938.819364835
0,937,0.0,933.819364835
0,940,0.0,936.819364835
0,942,0.0,939.819364835
0,940,0.0,941.819364835
0,935,0.0,940.473555384
0,935,0.0,935.473555384
0,936,0.0,935.473555384
0,939,0.0,936.473555384
0,943,0.0,939.473555384
0,941,0.0,943.473555384
0,942,0.0,941.473555384
0,942,0.0,941.731488769
0,945,0.0,942.112042138
0,948,0.0,945.078429497
0,949,0.0,948.078429497
0,951,0.0,949.078429497
0,950,0.0,951.078429497
0,952,0.0,950.078429497
0,953,0.0,952.078429497
0,956,0.0,953.078429497
0,957,0.0,956.078429497
0,959,0.0,957.078429497
0,958,0.0,959.078429497
0,955,0.0,958.078429497
0,959,0.0,955.078429497
0,959,0.0,959.078429497
0,961,0.0,959.078429497
0,960,0.0,961.078429497
0,959,0.0,960.078429497
0,959,0.0,959.078429497
0,961,0.0,959.078429497
0,960,0.0,961.078429497
0,963,0.0,960.078429497
0,963,0.0,963.078429497
0,962,0.0,963.078429497
0,960,0.0,962.078429497
0,963,0.0,960.078429497
0,964,0.0,963.078429497
0,967,0.0,964.078429497
0,966,0.0,967.078429497
0,966,0.0,966.078429497
0,964,0.0,966.078429497
0,965,0.0,964.078429497
0,966,0.0,965.078429497
0,965,0.0,966.078429497
0,962,0.0,965.078429497
0,961,0.0,962.078429497
0,958,0.0,961.078429497
0,962,0.0,958.078429497
0,963,0.0,962.078429497
0,963,0.0,963.078429497
0,963,0.0,963.078429497
0,962,0.0,963.078429497
0,959,0.0,962.078429497
0,959,0.0,959.078429497
0,959,0.0,959.078429497
0,960,0.0,959.078429497
0,960,0.0,960.078429497
0,957,0.0,960.078429497
0,959,0.0,957.078429497
0,959,0.0,959.078429497
0,961,0.0,959.078429497
0,961,0.0,961.078429497
0,961,0.0,961.078429497
0,960,0.0,961.078429497
0,959,0.0,960.078429497
0,961,0.0,959.078429497
0,963,0.0,961.078429497
0,964,0.0,963.078429497
0,963,0.0,964.078429497
0,960,0.0,963.078429497
0,957,0.0,960.078429497
0,958,0.0,957.078429497
0,959,0.0,958.078429497
0,961,0.0,959.078429497
0,956,0.0,961.078429497
0,955,0.0,956.078429497
0,953,0.0,955.078429497
0,956,0.0,953.078429497
0,955,0.0,956.078429497
0,957,0.0,955.078429497
0,956,0.0,957.078429497
0,953,0.0,956.078429497
0,952,0.0,953.078429497
0,952,0.0,952.078429497
0,953,0.0,952.078429497
0,954,0.0,953.078429497
0,954,0.0,954.078429497
0,953,0.0,954.078429497
0,951,0.0,953.078429497
0,952,0.0,951.078429497
0,954,0.0,952.078429497
0,956,0.0,954.078429497
0,955,0.0,956.078429497
0,954,0.0,955.078429497
0,952,0.0,954.078429497
0,951,0.0,952.078429497
0,952,0.0,951.078429497
0,953,0.0,952.078429497
0,952,0.0,953.078429497
0,950,0.0,952.078429497
0,949,0.0,950.078429497
0,952,0.0,949.078429497
0,957,0.0,952.078429497
0,959,0.0,957.078429497
0,959,0.0,959.078429497
0,959,0.0,959.078429497
0,960,0.0,959.078429497
0,962,0.0,960.078429497
0,963,0.0,962.078429497
0,965,0.0,963.078429497
0,966,0.0,965.078429497
0,968,0.0,966.078429497
0,965,0.0,968.078429497
0,970,0.0,965.078429497
0,974,0.0,970.078429497
0,977,0.0,974.078429497
0,975,0.0,977.078429497
0,972,0.0,975.078429497
0,972,0.0,972.078429497
0,976,0.0,972.078429497
0,976,0.0,976.078429497
0,977,0.0,976.078429497
0,978,0.0,977.078429497
0,979,0.0,978.078429497
0,977,0.0,979.078429497
0,976,0.0,977.078429497
0,972,0.0,976.078429497
0,974,0.0,972.078429497
0,976,0.0,974.078429497
0,973,0.0,976.078429497
0,971,0.0,973.078429497
0,975,0.0,971.078429497
0,975,0.0,975.078429497
0,980,0.0,975.078429497
0,982,0.0,980.078429497
0,976,0.0,982.078429497
0,970,0.0,976.078429497
0,965,0.0,970.078429497
0,964,0.0,965.078429497
0,963,0.0,964.078429497
0,958,0.0,963.078429497
0,953,0.0,958.078429497
0,950,0.0,953.078429497
0,951,0.0,950.078429497
0,952,0.0,951.078429497
0,952,0.0,952.078429497
0,952,0.0,952.078429497
0,949,0.0,952.078429497
0,947,0.0,949.078429497
0,946,0.0,947.078429497
0,946,0.0,946.078429497
0,947,0.0,946.078429497
0,947,0.0,947.078429497
0,946,0.0,947.078429497
0,939,0.0,946.078429497
0,941,0.0,939.078429497
0,943,0.0,941.078429497
0,945,0.0,943.654900648
0,943,0.0,945.654900648
0,943,0.0,943.654900648
0,940,0.0,943.654900648
0,941,0.0,940.654900648
0,944,0.0,941.654900648
0,946,0.0,944.758430453
0,944,0.0,946.758430453
0,943,0.0,944.758430453
0,939,0.0,943.758430453
0,938,0.0,939.758430453
0,934,0.0,938.758430453
0,929,0.0,934.758430453
0,925,0.0,929.758430453
0,918,0.0,925.758430453
0,902,0.0,918.758430453
0,895,0.0,902.758430453
0,901,0.0,895.758430453
0,918,0.0,901.758430453
0,936,0.0,918.758430453
0,949,0.0,936.758430453
0,958,0.0,949.758430453
0,974,0.0,958.758430453
0,995,0.0,974.758430453
0,1033,0.025,995.758430453
0,1085,0.075,1033.75843045
0,1137,0.05,1085.75843045
0,1176,0.0,1137.75843045
0,1197,0.0,1176.75843045
0,1193,0.0,1197.75843045
0,1148,0.075,1193.75843045
0,1066,0.05,1138.53386239
0,982,0.025,1056.53386239
0,924,0.55,985.995682546
0,904,0.125,914.533862386
0,911,0.15,903.998478139
0,924,0.025,911.758430453
0,936,0.0,924.758430453
0,936,0.0,936.758430453
0,932,0.0,936.758430453
0,931,0.0,932.758430453
0,933,0.0,931.758430453
0,937,0.0,933.758430453
0,935,0.0,937.758430453
0,933,0.0,935.758430453
0,927,0.0,933.758430453
0,931,0.0,927.758430453
0,932,0.0,931.758430453
0,933,0.0,932.758430453
0,935,0.0,933.758430453
0,933,0.0,935.758430453
0,930,0.0,933.758430453
0,929,0.0,930.758430453
0,934,0.0,929.758430453
0,933,0.0,934.758430453
0,934,0.0,933.758430453
0,932,0.0,934.758430453
0,931,0.0,932.758430453
0,932,0.0,931.758430453
0,938,0.0,932.758430453
0,939,0.0,938.758430453
0,936,0.0,939.758430453
0,932,0.0,936.758430453
0,930,0.0,932.758430453
0,931,0.0,930.758430453
0,931,0.0,931.758430453
0,934,0.0,931.758430453
0,932,0.0,934.758430453
0,930,0.0,932.758430453
0,931,0.0,930.758430453
0,930,0.0,931.758430453
0,933,0.0,930.758430453
0,932,0.0,933.758430453
0,931,0.0,932.758430453
0,928,0.0,931.758430453
0,925,0.0,928.758430453
0,924,0.0,925.758430453
0,923,0.0,924.758430453
0,927,0.0,923.758430453
0,926,0.0,927.758430453
0,926,0.0,926.758430453
0,923,0.0,926.758430453
0,928,0.0,923.758430453
0,932,0.0,928.758430453
0,935,0.0,932.758430453
0,936,0.0,935.758430453
0,933,0.0,936.758430453
0,931,0.0,933.758430453
0,930,0.0,931.758430453
0,931,0.0,930.758430453
0,931,0.0,931.758430453
0,930,0.0,931.758430453
0,926,0.0,930.758430453
0,923,0.0,926.758430453
0,925,0.0,923.758430453
0,928,0.0,925.758430453
0,931,0.0,928.758430453
0,932,0.0,931.758430453
0,930,0.0,932.758430453
0,928,0.0,930.758430453
0,928,0.0,928.758430453
0,932,0.0,928.758430453
0,931,0.0,932.758430453
0,931,0.0,931.758430453
0,930,0.0,931.758430453
0,930,0.0,930.758430453
0,930,0.0,930.758430453
0,931,0.0,930.758430453
0,933,0.0,931.758430453
0,934,0.0,933.758430453
0,930,0.0,934.758430453
0,929,0.0,930.758430453
0,929,0.0,929.758430453
0,930,0.0,929.758430453
0,932,0.0,930.758430453
0,929,0.0,932.758430453
0,926,0.0,929.758430453
0,923,0.0,926.758430453
0,921,0.0,923.758430453
0,922,0.0,921.758430453
0,923,0.0,922.758430453
0,923,0.0,923.758430453
0,923,0.0,923.758430453
0,923,0.0,923.758430453
0,924,0.0,923.758430453
0,927,0.0,924.758430453
0,926,0.0,927.758430453
0,924,0.0,926.758430453
0,923,0.0,924.758430453
0,921,0.0,923.758430453
0,922,0.0,921.758430453
0,926,0.0,922.758430453
0,926,0.0,926.758430453
0,929,0.0,926.758430453
0,931,0.0,929.758430453
0,932,0.0,931.758430453
0,937,0.025,932.758430453
0,939,0.025,937.758430453
0,941,0.0,939.758430453
0,945,0.0,941.758430453
0,946,0.0,946.130901317
0,947,0.0,947.130901317
0,948,0.0,948.130901317
0,948,0.0,949.130901317
0,950,0.0,949.130901317
0,950,0.0,951.130901317
0,950,0.0,951.130901317
0,951,0.0,951.130901317
0,951,0.05,952.130901317
0,951,0.05,952.130901317
0,949,0.0,952.130901317
0,950,0.0,949.281208892
0,952,0.025,951.130901317
0,950,0.025,953.130901317
0,951,0.0,950.796846224
0,953,0.0,950.555432663
0,955,0.0,953.857792357
0,954,0.0,955.857792357
0,952,0.025,954.857792357
0,949,0.025,952.857792357
0,949,0.0,949.00045465
0,952,0.05,949.00045465
0,950,0.025,952.00045465
0,949,0.0,950.900318255
0,948,0.0,949.900318255
0,948,0.0,948.900318255
0,951,0.05,948.900318255
0,952,0.025,951.900318255
0,956,0.025,953.530222778
0,954,0.05,957.371155945
0,954,0.0,955.371155945
0,952,0.0,955.371155945
0,950,0.075,951.570661835
0,952,0.05,949.570661835
0,954,0.0,952.359809161
0,954,0.0,954.851866413
0,953,0.0,954.851866413
0,951,0.0,953.209624299
0,949,0.0,951.209624299
0,950,0.025,948.996306489
0,949,0.0,949.996306489
0,944,0.025,948.996306489
0,944,0.025,943.996306489
0,944,0.075,943.996306489
0,945,0.05,943.996306489
0,950,0.175,944.996306489
0,951,0.05,950.174895227
0,953,0.2,952.103459382
0,946,0.075,953.297414542
0,944,0.075,946.297414542
0,944,0.0,944.297414542
0,945,0.025,944.297414542
0,946,0.025,944.665698661
0,946,0.0,946.065989063
0,944,0.0,946.065989063
0,942,0.0,944.065989063
0,943,0.0,941.446192344
0,944,0.0,942.446192344
0,947,0.1,943.446192344
0,945,0.025,946.912334641
0,940,0.35,944.912334641
0,940,0.2,940.605943528
0,944,0.05,939.338634249
0,946,0.325,943.338634249
0,950,0.025,946.737043974
0,947,0.15,950.204423154
0,945,0.175,947.737043974
0,942,0.15,945.737043974
0,942,0.15,941.915930782
0,944,0.0,941.915930782
0,946,0.1,943.915930782
0,944,0.175,946.541151547
0,943,0.15,944.541151547
0,938,0.05,942.778806083
0,941,0.15,937.778806083
0,942,0.225,940.778806083
0,942,0.1,941.778806083
0,946,0.05,941.778806083
0,942,0.325,946.467117409
0,943,0.025,941.778806083
0,944,0.0,942.778806083
0,945,0.0,943.778806083
0,948,0.0,945.145164258
0,947,0.45,947.126982186
0,945,0.125,950.995682546
0,948,0.15,945.401614981
0,952,0.075,947.681130487
0,956,0.2,951.681130487
0,958,0.25,955.681130487
0,962,0.0,957.681130487
0,960,0.275,961.681130487
0,959,0.0,959.681130487
0,960,0.05,958.681130487
0,962,0.0,959.681130487
0,963,0.0,961.681130487
0,962,0.0,962.681130487
0,962,0.0,961.681130487
0,963,0.0,961.681130487
0,963,0.3,962.681130487
0,969,0.6,962.681130487
0,969,0.6,972.995682546
0,969,0.025,968.681130487
0,970,0.125,968.681130487
0,967,0.2,969.681130487
0,966,0.1,967.1527075
0,967,0.0,965.681130487
0,967,0.0,966.681130487
0,965,0.05,966.681130487
0,964,0.0,964.681130487
0,964,0.0,964.082454055
0,968,0.025,963.681130487
0,969,0.025,967.681130487
0,971,0.025,970.257717838
0,970,0.0,972.257717838
0,969,0.0,971.257717838
0,970,0.0,970.257717838
0,969,0.0,969.681130487
0,972,0.0,970.257717838
0,976,0.0,972.007383473
0,972,0.35,976.007383473
0,965,0.5,962.533862386
0,959,0.3,968.995682546
0,956,0.075,962.995682546
0,955,0.05,953.17386378
0,955,0.0,955.007383473
0,948,0.15,952.17386378
0,944,0.0,948.717571919
0,941,0.0,943.892715906
0,940,0.0,939.576791341
0,942,0.125,938.576791341
0,944,0.0,942.605943528
0,944,0.0,942.576791341
0,941,0.0,943.603753938
0,940,0.0,940.722627757
0,939,0.0,939.722627757
0,940,0.025,938.722627757
0,941,0.0,939.722627757
0,940,0.0,940.722627757
0,937,0.0,939.445688423
0,936,0.0,936.445688423
0,939,0.025,935.445688423
0,941,0.0,938.722627757
0,944,0.0,940.722627757
0,943,0.0,943.722627757
0,940,0.0,943.70583943
0,939,0.175,940.211981896
0,940,0.175,942.995682546
0,940,0.15,943.995682546
0,940,0.125,943.995682546
0,941,0.075,940.719381948
0,938,0.125,940.683185705
0,933,0.05,928.533862386
0,929,0.025,932.683185705
0,923,0.15,928.683185705
0,919,0.0,913.533862386
0,915,0.0,918.683185705
0,908,0.1,914.683185705
0,901,0.1,908.70583943
0,904,0.175,901.70583943
0,921,0.825,904.605943528
0,948,1.0,922.596977782
0,974,1.0,949.596977782
0,1007,0.95,975.596977782
0,1054,0.625,1008.59697778
0,1113,0.95,1055.59697778
0,1163,0.725,1114.59697778
0,1195,0.35,1215.7
0,1200,0.825,1242.0
0,1167,0.7,1200.70583943
0,1092,1.0,1157.53386239
0,1006,0.0,1082.53386239
0,939,0.425,1007.59697778
0,911,0.725,929.533862386
0,903,1.0,836.0
0,903,0.0,903.70583943
0,906,0.0,903.448387327
0,914,0.075,906.448387327
0,924,0.075,914.70583943
0,930,0.05,924.70583943
0,932,0.0,930.70583943
0,930,0.0,932.70583943
0,929,0.0,930.448387327
0,930,0.0,929.448387327
0,931,0.0,930.448387327
0,931,0.0,931.448387327
0,932,0.0,930.683185705
0,933,0.0,932.448387327
0,931,0.0,933.448387327
0,929,0.0,931.448387327
0,931,0.0,929.448387327
0,934,0.0,931.70583943
0,934,0.0,934.70583943
0,930,0.0,934.70583943
0,931,0.0,929.683185705
0,933,0.0,931.70583943
0,934,0.0,933.70583943
0,935,0.0,934.70583943
0,933,0.0,935.70583943
0,931,0.0,933.448387327
0,931,0.0,931.448387327
0,932,0.0,931.448387327
0,934,0.0,931.95055201
0,935,0.0,934.70583943
0,934,0.0,935.265386407
0,931,0.0,934.265386407
0,928,0.0,931.265386407
0,931,0.0,927.285770485
0,931,0.0,930.285770485
0,934,0.0,931.400039339
0,932,0.0,934.280027538
0,931,0.0,932.280027538
0,928,0.0,930.596019276
0,928,0.0,927.417213493
0,931,0.0,927.417213493
0,932,0.0,930.417213493
0,930,0.0,932.492049445
0,928,0.0,930.644434612
0,927,0.0,928.644434612
0,928,0.0,927.644434612
0,930,0.0,928.644434612
0,931,0.0,930.644434612
0,931,0.0,931.644434612
0,930,0.0,931.751104228
0,930,0.0,930.52577296
0,933,0.0,930.52577296
0,931,0.0,933.52577296
0,935,0.0,931.52577296
0,935,0.0,934.768041072
0,932,0.0,934.768041072
0,933,0.0,931.768041072
0,932,0.0,931.93762875
0,934,0.0,930.93762875
0,935,0.0,932.956340125
0,936,0.0,933.956340125
0,932,0.0,934.956340125
0,933,0.0,930.956340125
0,935,0.0,931.069438088
0,937,0.0,933.069438088
0,937,0.0,935.069438088
0,938,0.0,935.069438088
0,935,0.0,936.069438088
0,933,0.0,933.069438088
0,933,0.0,931.069438088
0,934,0.0,931.069438088
0,937,0.0,932.069438088
0,935,0.0,935.069438088
0,933,0.0,933.069438088
0,930,0.0,931.069438088
0,931,0.0,928.069438088
0,929,0.0,929.069438088
0,933,0.0,927.948606661
0,933,0.0,931.948606661
0,930,0.0,931.948606661
0,929,0.0,928.948606661
0,928,0.0,927.948606661
0,930,0.0,926.948606661
0,931,0.0,928.948606661
0,928,0.0,929.948606661
0,925,0.0,927.564024663
0,924,0.0,924.564024663
0,926,0.0,923.564024663
0,928,0.0,925.564024663
0,928,0.0,927.564024663
0,927,0.0,927.564024663
0,924,0.0,926.564024663
0,923,0.0,923.564024663
0,923,0.0,922.564024663
0,925,0.0,922.564024663
0,927,0.0,924.564024663
0,927,0.0,926.564024663
0,928,0.0,926.564024663
0,928,0.0,927.564024663
0,931,0.0,927.564024663
0,939,0.075,930.564024663
0,940,0.0,939.594817264
0,941,0.0,940.594817264
0,940,0.0,941.594817264
0,941,0.0,940.594817264
0,945,0.0,941.594817264
0,949,0.0,945.594817264
0,952,0.0,949.594817264
0,952,0.0,952.594817264
0,954,0.0,952.594817264
0,953,0.0,954.594817264
0,957,0.0,953.594817264
0,959,0.0,957.594817264
0,962,0.0,959.594817264
0,962,0.0,962.594817264
0,962,0.0,962.594817264
0,961,0.0,962.594817264
0,961,0.0,961.594817264
0,964,0.0,961.594817264
0,964,0.0,964.594817264
0,965,0.0,964.594817264
0,964,0.0,965.594817264
0,958,0.025,964.594817264
0,961,0.0,948.48
0,965,0.0,961.594817264
0,963,0.0,965.594817264
0,961,0.0,963.594817264
0,959,0.0,961.594817264
0,961,0.0,959.594817264
0,961,0.0,961.594817264
0,964,0.0,961.594817264
0,964,0.0,964.594817264
0,963,0.0,964.594817264
0,961,0.0,963.594817264
0,960,0.0,961.594817264
0,960,0.0,960.594817264
0,964,0.0,960.594817264
0,964,0.0,964.594817264
0,963,0.0,964.594817264
0,960,0.0,963.594817264
0,960,0.0,960.72970979
0,959,0.0,961.694087601
0,960,0.0,960.694087601
0,964,0.0,961.694087601
0,964,0.0,965.694087601
0,963,0.0,965.694087601
0,961,0.0,964.694087601
0,962,0.0,961.72970979
0,962,0.0,963.694087601
0,961,0.0,963.694087601
0,964,0.0,962.694087601
0,963,0.0,965.694087601
0,961,0.0,964.694087601
0,961,0.0,961.72970979
0,963,0.0,959.804344654
0,961,0.0,962.163041258
0,960,0.0,960.163041258
0,958,0.0,958.81412888
0,956,0.0,956.869890216
0,957,0.0,954.869890216
0,959,0.0,955.869890216
0,959,0.0,957.869890216
0,960,0.0,957.869890216
0,959,0.0,958.869890216
0,960,0.0,958.508923151
0,960,0.0,959.508923151
0,959,0.0,959.956246206
0,960,0.0,958.969372344
0,959,0.0,959.969372344
0,958,0.0,959.278560641
0,955,0.0,958.278560641
0,958,0.0,955.278560641
0,958,0.0,958.278560641
0,959,0.0,958.278560641
0,960,0.0,959.278560641
0,956,0.0,960.278560641
0,954,0.0,956.494992449
0,956,0.0,954.494992449
0,958,0.0,956.494992449
0,957,0.0,958.494992449
0,957,0.0,957.494992449
0,957,0.0,957.494992449
0,957,0.0,957.494992449
0,960,0.0,957.494992449
0,961,0.0,960.494992449
0,965,0.0,962.246494714
0,966,0.0,966.1725463
0,967,0.0,967.1725463
0,966,0.0,968.1725463
0,965,0.0,967.1725463
0,970,0.0,966.1725463
0,973,0.0,971.1725463
0,974,0.0,974.1725463
0,974,0.0,975.1725463
0,969,0.0,975.1725463
0,975,0.0,970.1725463
0,978,0.0,976.1725463
0,981,0.0,979.1725463
0,980,0.0,982.1725463
0,982,0.0,981.1725463
0,983,0.0,983.1725463
0,982,0.0,984.1725463
0,986,0.0,983.1725463
0,985,0.0,987.1725463
0,983,0.0,986.1725463
0,981,0.0,984.1725463
0,979,0.0,982.1725463
0,982,0.0,980.1725463
0,983,0.0,983.1725463
0,986,0.0,984.1725463
0,986,0.0,987.1725463
0,983,0.0,987.1725463
0,985,0.0,984.1725463
0,987,0.0,986.1725463
0,993,0.0,988.1725463
0,997,0.0,994.1725463
0,998,0.0,998.1725463
0,992,0.0,999.1725463
0,982,0.05,993.1725463
0,974,0.0,983.1725463
0,972,0.0,975.1725463
0,971,0.0,973.1725463
0,971,0.0,972.1725463
0,968,0.0,972.1725463
0,968,0.0,969.1725463
0,966,0.0,969.1725463
0,963,0.0,967.1725463
0,963,0.0,964.1725463
0,957,0.0,964.1725463
0,954,0.0,958.1725463
0,952,0.0,955.1725463
0,954,0.0,953.1725463
0,955,0.0,955.1725463
0,958,0.0,956.1725463
0,954,0.0,959.1725463
0,952,0.0,955.1725463
0,950,0.0,953.1725463
0,952,0.0,951.1725463
0,954,0.0,953.1725463
0,955,0.0,955.1725463
0,954,0.0,956.1725463
0,953,0.0,955.1725463
0,952,0.0,954.1725463
0,949,0.0,953.1725463
0,952,0.0,950.1725463
0,953,0.0,953.1725463
0,951,0.0,954.1725463
0,950,0.0,952.1725463
0,949,0.0,951.1725463
0,948,0.0,950.1725463
0,951,0.0,949.1725463
0,949,0.0,952.1725463
0,943,0.0,950.1725463
0,935,0.0,944.1725463
0,924,0.0,936.1725463
0,922,0.0,925.1725463
0,920,0.0,923.1725463
0,915,0.0,921.1725463
0,910,0.0,916.1725463
0,918,0.0,911.1725463
0,936,0.15,919.694087601
0,968,0.725,951.5
0,1002,0.05,983.5
0,1046,0.0,1017.5
0,1101,0.0,1078.0
0,1159,0.0,1151.0
0,1199,0.0,1209.0
0,1221,0.075,1254.0
0,1212,0.3,1230.56387805
0,1160,1.0,1212.72970979
0,1069,0.3,1155.77370367
0,982,0.0,1069.71187526
0,925,0.625,978.646456059
0,909,0.475,834.0
0,917,0.025,899.48
0,931,0.05,918.694087601
0,939,0.0,940.563878053
0,941,0.0,940.694087601
0,938,0.0,942.1725463
0,939,0.025,939.1725463
0,940,0.0,940.1725463
0,941,0.0,941.1725463
0,941,0.0,942.1725463
0,938,0.0,942.1725463
0,936,0.0,939.1725463
0,938,0.0,937.1725463
0,940,0.0,939.1725463
0,941,0.0,941.1725463
0,942,0.0,942.1725463
0,938,0.0,943.1725463
0,936,0.0,939.1725463
0,939,0.0,937.1725463
0,941,0.0,939.879602324
0,942,0.0,942.1725463
0,942,0.0,943.215721627
0,940,0.0,943.151005139
0,937,0.0,940.805703597
0,937,0.0,937.805703597
0,940,0.0,937.805703597
0,940,0.0,940.805703597
0,939,0.0,940.805703597
0,937,0.0,939.805703597
0,938,0.0,937.805703597
0,937,0.0,938.805703597
0,938,0.0,938.1725463
0,939,0.0,938.805703597
0,940,0.0,939.805703597
0,937,0.0,940.805703597
0,935,0.0,937.463984714
0,934,0.0,935.463984714
0,936,0.0,935.1725463
0,939,0.0,936.805703597
0,937,0.0,939.805703597
0,936,0.0,938.2247893
0,934,0.0,937.2247893
0,937,0.0,935.2247893
0,939,0.0,937.805703597
0,940,0.0,939.805703597
0,939,0.0,940.805703597
0,940,0.0,940.45735251
0,937,0.0,940.720146757
0,937,0.0,937.720146757
0,939,0.0,937.720146757
0,941,0.0,939.720146757
0,939,0.0,942.10410273
0,935,0.0,940.10410273
0,934,0.0,935.172871911
0,935,0.0,934.172871911
0,938,0.0,935.172871911
0,938,0.0,938.172871911
0,938,0.0,939.021010338
0,936,0.0,938.714707236
0,934,0.0,936.500295065
0,935,0.0,934.500295065
0,937,0.0,935.500295065
0,941,0.0,937.500295065
0,937,0.0,941.500295065
0,936,0.0,937.500295065
0,935,0.0,936.500295065
0,939,0.0,935.500295065
0,940,0.0,939.500295065
0,941,0.0,941.550206546
0,941,0.0,942.550206546
0,940,0.0,942.550206546
0,941,0.0,941.550206546
0,940,0.0,942.550206546
0,943,0.0,941.550206546
0,942,0.0,944.550206546
0,941,0.0,943.550206546
0,940,0.0,942.550206546
0,938,0.0,941.550206546
0,937,0.0,939.550206546
0,938,0.0,937.485144582
0,939,0.0,938.047656556
0,938,0.0,939.639601207
0,936,0.0,938.747720845
0,933,0.0,936.223404592
0,935,0.0,933.223404592
0,936,0.0,935.223404592
0,937,0.0,936.223404592
0,937,0.0,937.223404592
0,937,0.0,937.223404592
0,935,0.0,937.223404592
0,938,0.0,935.223404592
0,940,0.0,938.223404592
0,942,0.0,941.056383214
0,945,0.0,943.056383214
0,945,0.0,946.056383214
0,943,0.0,946.056383214
0,947,0.0,944.056383214
0,949,0.0,948.056383214
0,955,0.0,950.056383214
0,954,0.0,955.633359589
0,954,0.0,955.056383214
0,952,0.0,955.056383214
0,957,0.0,953.056383214
0,958,0.0,957.633359589
0,962,0.0,959.056383214
0,963,0.0,963.056383214
0,961,0.0,964.056383214
0,957,0.0,962.056383214
0,959,0.0,958.056383214
0,960,0.0,960.056383214
0,962,0.0,961.056383214
0,963,0.0,963.056383214
0,961,0.0,964.056383214
0,959,0.0,962.056383214
0,962,0.0,960.056383214
0,959,0.0,963.056383214
0,965,0.0,960.056383214
0,965,0.0,965.633359589
0,965,0.0,966.056383214
0,961,0.0,966.056383214
0,963,0.0,962.056383214
0,966,0.0,964.056383214
0,965,0.0,967.056383214
0,965,0.0,966.056383214
0,964,0.0,966.056383214
0,958,0.0,965.056383214
0,960,0.0,959.056383214
0,961,0.0,961.056383214
0,964,0.0,962.056383214
0,962,0.0,965.056383214
0,960,0.0,963.056383214
0,959,0.0,961.056383214
0,962,0.0,960.056383214
0,960,0.0,963.056383214
0,962,0.0,961.056383214
0,961,0.0,963.056383214
0,961,0.0,962.056383214
0,957,0.0,962.056383214
0,959,0.0,958.056383214
0,957,0.0,960.056383214
0,959,0.0,958.056383214
0,959,0.0,960.056383214
0,959,0.0,960.056383214
0,956,0.0,960.056383214
0,955,0.0,957.056383214
0,959,0.0,956.056383214
0,961,0.0,959.633359589
0,958,0.0,962.056383214
0,958,0.0,959.056383214
0,957,0.0,959.056383214
0,956,0.0,958.056383214
0,954,0.0,957.056383214
0,955,0.0,955.056383214
0,953,0.0,956.056383214
0,952,0.0,954.056383214
0,950,0.0,953.056383214
0,951,0.0,951.056383214
0,953,0.0,952.056383214
0,954,0.0,954.056383214
0,952,0.0,955.056383214
0,952,0.0,953.056383214
0,947,0.0,953.056383214
0,948,0.0,948.056383214
0,951,0.0,949.056383214
0,954,0.0,951.633359589
0,952,0.0,955.056383214
0,951,0.0,953.056383214
0,947,0.0,952.056383214
0,948,0.0,948.056383214
0,952,0.0,949.056383214
0,956,0.0,952.633359589
0,955,0.0,957.056383214
0,954,0.0,956.056383214
0,953,0.0,955.056383214
0,954,0.0,954.056383214
0,957,0.0,955.056383214
0,960,0.0,957.633359589
0,962,0.0,960.633359589
0,961,0.0,963.056383214
0,960,0.0,962.056383214
0,962,0.0,960.383448746
0,968,0.0,961.968414122
0,969,0.0,968.633359589
0,970,0.0,968.968414122
0,969,0.0,969.968414122
0,968,0.0,968.968414122
0,972,0.0,967.968414122
0,973,0.0,971.968414122
0,975,0.0,972.968414122
0,976,0.0,974.968414122
0,976,0.0,975.968414122
0,974,0.0,975.968414122
0,974,0.0,973.968414122
0,978,0.0,973.968414122
0,977,0.0,977.968414122
0,976,0.0,976.968414122
0,972,0.0,975.968414122
0,971,0.0,971.968414122
0,971,0.0,970.968414122
0,978,0.0,970.968414122
0,981,0.0,978.633359589
0,979,0.0,980.968414122
0,978,0.0,978.968414122
0,977,0.0,977.968414122
0,983,0.0,976.968414122
0,986,0.0,983.633359589
0,984,0.0,985.968414122
0,976,0.0,983.968414122
0,967,0.0,975.968414122
0,963,0.0,966.968414122
0,961,0.0,962.968414122
0,959,0.0,960.968414122
0,958,0.0,958.377889885
0,954,0.0,957.377889885
0,949,0.0,953.377889885
0,944,0.0,948.377889885
0,945,0.0,943.377889885
0,949,0.0,944.377889885
0,951,0.0,948.377889885
0,951,0.0,950.377889885
0,950,0.0,950.377889885
0,948,0.0,949.377889885
0,946,0.0,947.377889885
0,950,0.0,945.377889885
0,952,0.0,949.377889885
0,948,0.0,951.377889885
0,946,0.0,947.377889885
0,945,0.0,945.377889885
0,949,0.0,944.377889885
0,946,0.0,948.377889885
0,947,0.0,945.377889885
0,947,0.0,946.377889885
0,945,0.0,946.377889885
0,945,0.0,944.377889885
0,945,0.0,944.377889885
0,943,0.0,944.377889885
0,946,0.0,942.377889885
0,945,0.0,945.377889885
0,945,0.0,944.377889885
0,941,0.0,944.377889885
0,941,0.0,940.377889885
0,934,0.0,940.377889885
0,928,0.0,933.377889885
0,922,0.0,927.377889885
0,920,0.0,921.377889885
0,908,0.025,919.377889885
0,903,0.0,907.591454278
0,904,0.0,902.377889885
0,921,0.05,903.377889885
0,947,0.05,922.252410172
0,973,0.0,962.5
0,1005,0.0,980.419895623
0,1052,0.0,1012.82832898
0,1112,0.0,1084.0
0,1163,0.0,1144.0
0,1195,0.0,1195.0
0,1200,0.0,1242.0
0,1174,0.875,1199.4703462
0,1103,0.225,1165.836
0,1018,0.0,1095.02416047
0,944,0.0,1013.77370367
0,909,0.575,936.024160469
0,904,0.1,834.0
0,917,0.225,903.470346199
0,929,0.325,918.056383214
0,935,0.2,930.056383214
0,936,0.0,912.514017995
0,936,0.0,935.470346199
0,934,0.0,935.377889885
0,935,0.0,933.377889885
0,938,0.0,934.377889885
0,941,0.0,937.377889885
0,941,0.0,940.377889885
0,941,0.0,940.377889885
0,939,0.0,940.377889885
0,936,0.025,938.377889885
0,934,0.0,935.377889885
0,937,0.0,933.377889885
0,938,0.0,937.259328746
0,934,0.0,938.259328746
0,933,0.0,934.683339442
0,931,0.025,933.683339442
0,932,0.025,931.683339442
0,934,0.0,933.208240529
0,934,0.0,934.259328746
0,935,0.0,934.683339442
0,934,0.0,935.259328746
0,931,0.025,934.683339442
0,933,0.0,932.208240529
0,934,0.0,933.259328746
0,934,0.0,934.259328746
0,935,0.0,934.683339442
0,934,0.025,935.259328746
0,931,0.025,934.683339442
0,933,0.025,931.355561972
0,935,0.025,933.259328746
0,936,0.025,935.259328746
0,934,0.025,936.259328746
0,932,0.025,934.683339442
0,933,0.0,932.683339442
0,935,0.0,933.259328746
0,935,0.0,935.259328746
0,936,0.0,935.683339442
0,936,0.0,936.259328746
0,933,0.0,936.683339442
0,931,0.0,933.3185099
0,933,0.0,931.683339442
0,931,0.0,933.259328746
0,929,0.0,931.683339442
0,932,0.0,929.683339442
0,929,0.025,932.259328746
0,930,0.025,929.355561972
0,931,0.0,930.259328746
0,935,0.025,931.259328746
0,933,0.0,935.259328746
0,933,0.025,933.683339442
0,930,0.125,933.683339442
0,931,0.025,930.355561972
0,929,0.0,931.259328746
0,931,0.0,929.683339442
0,933,0.0,932.208240529
0,936,0.0,933.259328746
0,935,0.0,936.259328746
0,934,0.0,935.683339442
0,933,0.025,934.696069851
0,935,0.0,933.187248896
0,937,0.0,935.187248896
0,938,0.0,937.731074227
0,935,0.05,938.259328746
0,931,0.0,935.731074227
0,930,0.05,930.611751959
0,932,0.0,929.611751959
0,938,0.05,931.611751959
0,937,0.05,937.177532531
0,934,0.025,936.611751959
0,930,0.0,934.109462441
0,933,0.0,928.828226371
0,934,0.0,933.259328746
0,934,0.0,934.259328746
0,933,0.025,933.47975846
0,931,0.0,932.635830922
0,929,0.0,931.922203364
0,927,0.0,929.359946105
0,931,0.025,926.635830922
0,931,0.025,932.208240529
0,930,0.025,930.635830922
0,930,0.0,929.635830922
0,930,0.025,929.635830922
0,930,0.0,929.635830922
0,933,0.0,929.635830922
0,935,0.025,934.208240529
0,933,0.0,937.344836327
0,931,0.05,933.922203364
0,930,0.0,931.345081645
0,931,0.0,930.345081645
0,937,0.0,931.345081645
0,939,0.025,937.259328746
0,939,0.025,939.345081645
0,938,0.0,939.345081645
0,938,0.025,938.355561972
0,938,0.025,938.345081645
0,942,0.0,915.514017995
0,943,0.0,942.345081645
0,948,0.0,943.391156641
0,948,0.0,948.391156641
0,947,0.0,948.922203364
0,947,0.0,947.359946105
0,948,0.0,947.355561972
0,949,0.0,949.381530122
0,950,0.0,949.391156641
0,952,0.0,950.391156641
0,949,0.0,952.391156641
0,950,0.0,949.191532474
0,952,0.0,950.391156641
0,955,0.0,952.391156641
0,953,0.025,955.345081645
0,953,0.0,954.381530122
0,953,0.0,953.391156641
0,952,0.0,953.391156641
0,953,0.0,952.391156641
0,955,0.0,953.391156641
0,954,0.0,955.391156641
0,954,0.0,955.760211857
0,950,0.0,954.391156641
0,949,0.0,950.345081645
0,952,0.0,949.391156641
0,954,0.0,957.02879519
0,953,0.0,954.391156641
0,953,0.0,953.391156641
0,947,0.0,953.391156641
0,948,0.0,946.377889885
0,946,0.0,949.381530122
0,950,0.0,946.391156641
0,950,0.0,951.381530122
0,949,0.0,950.391156641
0,946,0.025,949.391156641
0,948,0.025,946.345081645
0,949,0.025,948.391156641
0,952,0.025,949.531752667
0,950,0.0,952.345081645
0,949,0.05,950.391156641
0,946,0.0,949.391156641
0,944,0.0,946.345081645
0,948,0.0,944.391156641
0,946,0.0,948.345081645
0,947,0.025,946.391156641
0,946,0.0,947.391156641
0,944,0.0,946.391156641
0,946,0.0,944.391156641
0,947,0.05,946.345081645
0,946,0.05,947.391156641
0,945,0.0,946.391156641
0,942,0.0,945.391156641
0,941,0.0,943.280391165
0,941,0.0,941.391156641
0,943,0.0,941.391156641
0,944,0.0,943.391156641
0,945,0.0,944.391156641
0,944,0.0,945.391156641
0,941,0.0,944.391156641
0,941,0.025,941.345081645
0,943,0.0,941.391156641
0,944,0.025,943.391156641
0,943,0.0,943.283203768
0,945,0.0,943.391156641
0,939,0.025,945.391156641
0,942,0.0,938.377889885
0,942,0.0,941.283203768
0,939,0.025,940.473809649
0,942,0.025,939.278769846
0,942,0.0,942.278769846
0,939,0.0,940.031666754
0,942,0.0,939.766597225
0,942,0.025,942.766597225
0,948,0.125,939.722166728
0,944,0.0,949.00563264
0,943,0.0,945.00563264
0,942,0.0,944.00563264
0,943,0.0,943.00563264
0,945,0.0,943.403942848
0,947,0.0,945.403942848
0,948,0.0,947.403942848
0,950,0.0,948.403942848
0,949,0.0,950.403942848
0,951,0.0,949.403942848
0,954,0.0,951.403942848
0,955,0.0,954.403942848
0,956,0.0,955.403942848
0,956,0.0,956.403942848
0,955,0.0,956.403942848
0,958,0.0,955.403942848
0,960,0.025,958.403942848
0,967,0.1,960.403942848
0,965,0.0,969.04117417
0,964,0.0,965.403942848
0,964,0.0,964.403942848
0,967,0.025,964.403942848
0,968,0.0,967.403942848
0,967,0.0,968.403942848
0,965,0.0,967.403942848
0,964,0.025,965.403942848
0,964,0.0,964.403942848
0,966,0.0,964.403942848
0,967,0.0,966.403942848
0,970,0.0,967.403942848
0,972,0.0,970.403942848
0,973,0.0,972.403942848
0,968,0.0,973.403942848
0,961,0.0,968.403942848
0,953,0.0,961.403942848
0,953,0.0,953.403942848
0,953,0.0,953.403942848
0,950,0.0,953.403942848
0,945,0.0,950.403942848
0,944,0.0,945.403942848
0,944,0.0,944.403942848
0,942,0.0,944.403942848
0,939,0.0,942.403942848
0,940,0.025,938.682759994
0,937,0.0,939.682759994
0,939,0.0,936.682759994
0,941,0.0,938.682759994
0,943,0.0,940.682759994
0,942,0.0,943.377931996
0,939,0.0,942.377931996
0,938,0.0,938.964552397
0,938,0.0,937.964552397
0,942,0.025,937.964552397
0,941,0.0,941.964552397
0,940,0.0,942.175186678
0,940,0.0,940.522630674
0,934,0.0,940.522630674
0,937,0.0,934.522630674
0,935,0.0,937.522630674
0,937,0.0,935.522630674
0,935,0.0,937.522630674
0,934,0.0,935.522630674
0,932,0.0,934.522630674
0,933,0.05,932.522630674
0,940,0.05,933.522630674
0,939,0.0,940.522630674
0,938,0.0,939.522630674
0,934,0.0,938.522630674
0,923,0.0,934.522630674
0,914,0.0,923.522630674
0,909,0.0,914.522630674
0,906,0.0,909.522630674
0,902,0.0,906.522630674
0,903,0.0,902.522630674
0,915,0.075,903.522630674
0,943,0.05,913.978378535
0,977,0.025,975.0
0,1023,0.0,1009.0
0,1079,0.0,1055.0
0,1137,0.0,1111.0
0,1177,0.0,1169.0
0,1195,0.0,1209.0
0,1177,0.1,1195.52263067
0,1117,1.0,1182.53673732
0,1029,0.0,1104.11238154
0,954,0.0,1021.02416047
0,911,0.475,941.112381543
0,901,0.2,908.66924
0,906,0.0,901.522630674
0,919,0.25,906.522630674
0,924,0.0,917.978378535
0,924,0.0,924.522630674
0,922,0.0,924.522630674
0,923,0.0,922.522630674
0,926,0.0,923.522630674
0,929,0.0,926.522630674
0,930,0.0,929.522630674
0,932,0.0,930.522630674
0,929,0.0,932.522630674
0,928,0.0,929.522630674
0,930,0.0,926.978378535
0,931,0.0,930.522630674
0,929,0.0,931.522630674
0,928,0.0,929.522630674
0,926,0.0,926.978378535
0,926,0.0,926.522630674
0,926,0.0,924.978378535
0,929,0.0,924.978378535
0,928,0.0,929.522630674
0,924,0.0,928.522630674
0,924,0.0,924.522630674
0,922,0.0,924.522630674
0,927,0.0,922.522630674
0,927,0.0,927.522630674
0,930,0.0,927.522630674
0,926,0.0,930.522630674
0,927,0.0,926.522630674
0,925,0.0,927.522630674
0,926,0.0,925.522630674
0,928,0.0,926.522630674
0,925,0.0,928.522630674
0,923,0.0,925.522630674
0,922,0.0,923.522630674
0,924,0.0,922.522630674
0,928,0.0,924.522630674
0,930,0.0,928.522630674
0,928,0.0,930.522630674
0,926,0.0,928.522630674
0,924,0.0,926.522630674
0,924,0.0,924.522630674
0,927,0.0,924.522630674
0,928,0.0,927.522630674
0,929,0.0,928.522630674
0,926,0.0,929.522630674
0,923,0.0,926.522630674
0,925,0.0,923.522630674
0,927,0.0,925.522630674
0,927,0.0,927.522630674
0,927,0.0,927.522630674
0,925,0.0,927.522630674
0,922,0.0,925.522630674
0,923,0.0,922.522630674
0,923,0.0,923.522630674
0,925,0.0,923.522630674
0,927,0.0,925.522630674
0,927,0.0,927.522630674
0,922,0.0,927.522630674
0,925,0.0,922.522630674
0,926,0.0,925.522630674
0,927,0.0,926.522630674
0,925,0.0,927.522630674
0,922,0.0,925.522630674
0,922,0.0,922.522630674
0,921,0.0,922.522630674
0,924,0.0,921.522630674
0,926,0.0,924.522630674
0,930,0.0,926.522630674
0,926,0.0,930.522630674
0,924,0.0,926.522630674
0,925,0.0,924.522630674
0,926,0.0,925.522630674
0,926,0.0,926.522630674
0,926,0.0,926.522630674
0,923,0.0,926.522630674
0,918,0.0,923.522630674
0,919,0.0,918.522630674
0,919,0.0,919.522630674
0,920,0.0,919.522630674
0,918,0.0,920.522630674
0,918,0.0,918.522630674
0,916,0.0,918.522630674
0,916,0.0,916.522630674
0,917,0.0,916.522630674
0,920,0.0,917.522630674
0,921,0.0,920.522630674
0,919,0.0,921.522630674
0,919,0.0,919.522630674
0,918,0.0,919.522630674
0,921,0.0,918.522630674
0,922,0.0,921.522630674
0,923,0.0,922.522630674
0,921,0.0,923.522630674
0,920,0.0,921.522630674
0,923,0.0,920.522630674
0,927,0.0,923.522630674
0,931,0.0,927.522630674
0,935,0.0,931.522630674
0,934,0.0,935.522630674
0,936,0.0,934.522630674
0,938,0.0,936.522630674
0,943,0.0,938.522630674
0,947,0.0,943.522630674
0,947,0.0,947.522630674
0,948,0.0,946.884864975
0,949,0.0,948.522630674
0,948,0.0,949.522630674
0,949,0.0,947.884864975
0,951,0.0,949.522630674
0,950,0.0,951.522630674
0,949,0.0,949.884864975
0,947,0.0,948.884864975
0,947,0.0,946.884864975
0,948,0.0,946.884864975
0,954,0.0,948.522630674
0,952,0.0,953.884864975
0,952,0.0,951.884864975
0,950,0.0,951.884864975
0,951,0.0,949.884864975
0,954,0.0,951.522630674
0,954,0.0,954.522630674
0,953,0.0,953.884864975
0,952,0.0,952.884864975
0,949,0.0,951.884864975
0,952,0.0,949.522630674
0,952,0.0,952.522630674
0,953,0.0,951.884864975
0,953,0.0,953.522630674
0,953,0.0,952.884864975
0,950,0.0,952.884864975
0,952,0.0,950.522630674
0,954,0.0,952.522630674
0,957,0.0,954.522630674
0,954,0.0,957.522630674
0,952,0.0,954.522630674
0,949,0.0,951.884864975
0,950,0.0,949.522630674
0,949,0.0,950.522630674
0,953,0.0,948.884864975
0,952,0.0,953.522630674
0,951,0.0,951.884864975
0,947,0.0,950.884864975
0,949,0.0,947.522630674
0,950,0.0,949.522630674
0,953,0.0,950.522630674
0,952,0.0,953.522630674
0,950,0.0,951.884864975
0,948,0.0,950.522630674
0,948,0.0,948.522630674
0,952,0.0,947.884864975
0,952,0.0,952.522630674
0,950,0.0,951.884864975
0,950,0.0,950.522630674
0,947,0.0,949.884864975
0,950,0.0,947.522630674
0,950,0.0,950.522630674
0,950,0.0,949.884864975
0,949,0.0,949.884864975
0,948,0.0,948.884864975
0,944,0.0,947.884864975
0,946,0.0,944.522630674
0,948,0.0,946.522630674
0,950,0.0,948.522630674
0,950,0.0,950.522630674
0,948,0.0,949.884864975
0,944,0.0,948.522630674
0,947,0.0,944.522630674
0,948,0.0,947.522630674
0,949,0.0,948.522630674
0,949,0.0,949.522630674
0,950,0.0,948.884864975
0,948,0.0,950.522630674
0,949,0.0,948.522630674
0,950,0.0,949.522630674
0,954,0.0,950.522630674
0,954,0.0,954.522630674
0,950,0.0,953.884864975
0,948,0.0,950.522630674
0,949,0.0,948.522630674
0,950,0.0,949.522630674
0,952,0.0,950.522630674
0,952,0.0,952.522630674
0,952,0.0,951.884864975
0,951,0.0,951.884864975
0,954,0.0,950.884864975
0,956,0.0,954.522630674
0,961,0.025,956.522630674
0,960,0.025,961.522630674
0,960,0.025,959.884864975
0,960,0.0,959.884864975
0,964,0.0,959.884864975
0,968,0.0,964.522630674
0,969,0.0,968.522630674
0,970,0.0,969.522630674
0,971,0.0,970.522630674
0,972,0.0,971.522630674
0,974,0.0,972.522630674
0,976,0.0,974.522630674
0,982,0.0,976.522630674
0,981,0.0,981.884864975
0,978,0.0,980.884864975
0,977,0.0,978.522630674
0,976,0.0,976.884864975
0,976,0.0,975.884864975
0,975,0.0,975.884864975
0,979,0.0,974.884864975
0,979,0.0,979.522630674
0,975,0.0,978.884864975
0,973,0.0,975.522630674
0,975,0.0,973.037095716
0,976,0.0,975.522630674
0,978,0.0,976.522630674
0,978,0.0,978.522630674
0,976,0.0,977.884864975
0,984,0.0,976.037095716
0,989,0.0,984.522630674
0,986,0.0,989.522630674
0,977,0.0,986.522630674
0,968,0.0,976.230582917
0,962,0.025,967.230582917
0,964,0.0,962.522630674
0,962,0.0,964.522630674
0,961,0.0,962.037095716
0,958,0.0,960.884864975
0,953,0.0,958.522630674
0,950,0.0,953.522630674
0,950,0.0,950.522630674
0,949,0.0,949.884864975
0,953,0.0,948.884864975
0,953,0.0,953.522630674
0,951,0.0,952.884864975
0,947,0.0,951.037095716
0,951,0.0,947.522630674
0,950,0.0,950.425967001
0,951,0.0,949.884864975
0,951,0.0,951.522630674
0,947,0.0,951.85872383
0,945,0.0,947.601106681
0,945,0.0,945.601106681
0,946,0.0,945.601106681
0,948,0.0,946.601106681
0,949,0.0,948.601106681
0,946,0.0,949.601106681
0,945,0.0,946.601106681
0,946,0.0,945.601106681
0,947,0.0,946.601106681
0,950,0.0,947.601106681
0,948,0.0,950.601106681
0,945,0.0,948.601106681
0,940,0.0,945.601106681
0,933,0.0,940.601106681
0,928,0.0,933.522630674
0,925,0.0,928.601106681
0,920,0.0,925.601106681
0,912,0.0,920.601106681
0,908,0.0,912.522630674
0,916,0.0,908.601106681
0,939,0.05,916.522630674
0,966,0.025,941.652116839
0,996,0.025,993.8
0,1032,0.0,1023.8
0,1080,0.0,1059.8
0,1138,0.0,1107.8
0,1185,0.0,1165.8
0,1213,0.0,1212.8
0,1212,0.1,1260.0
0,1174,0.95,1212.52263067
0,1099,0.05,1171.66924
0,1011,0.0,1083.66183863
0,945,0.425,995.66183863
0,915,0.25,934.77866708
0,908,0.025,840.0
0,917,0.15,908.522630674
0,928,0.05,923.819405482
0,938,0.025,934.819405482
0,942,0.0,944.819405482
0,942,0.0,942.522630674
0,938,0.0,942.601106681
0,937,0.0,938.601106681
0,933,0.0,937.601106681
0,936,0.0,933.601106681
0,937,0.0,936.601106681
0,941,0.0,938.09608903
0,942,0.0,941.601106681
0,940,0.0,943.967262321
0,938,0.0,940.601106681
0,939,0.0,938.601106681
0,941,0.0,940.677083625
0,941,0.0,942.677083625
0,943,0.0,942.773958537
0,939,0.0,944.241770976
0,939,0.0,940.241770976
0,938,0.0,940.241770976
0,939,0.0,939.241770976
0,942,0.0,940.241770976
0,940,0.0,943.241770976
0,937,0.0,940.148597255
0,935,0.0,937.148597255
0,937,0.0,935.148597255
0,940,0.0,937.148597255
0,941,0.0,941.769239683
0,943,0.0,942.769239683
0,940,0.0,944.538467778
0,936,0.0,940.148597255
0,938,0.0,936.148597255
0,939,0.0,939.538467778
0,942,0.0,940.538467778
0,941,0.0,943.538467778
0,941,0.0,941.792812655
0,939,0.0,941.792812655
0,941,0.0,939.792812655
0,944,0.0,941.758694448
0,944,0.0,945.131086114
0,944,0.0,945.131086114
0,941,0.0,945.131086114
0,936,0.0,940.954968859
0,939,0.0,935.89176028
0,940,0.0,938.89176028
0,943,0.0,939.89176028
0,943,0.0,942.89176028
0,941,0.0,942.89176028
0,939,0.0,941.868478201
0,937,0.0,939.868478201
0,941,0.0,937.007934741
0,941,0.0,940.324232196
0,942,0.0,941.726962537
0,941,0.0,942.508873776
0,939,0.0,941.656211643
0,942,0.0,939.15934815
0,943,0.0,942.15934815
0,944,0.0,944.011543705
0,943,0.0,945.011543705
0,943,0.0,944.011543705
0,942,0.0,944.011543705
0,943,0.0,943.011543705
0,947,0.0,943.408080594
0,947,0.0,947.408080594
0,946,0.0,947.408080594
0,944,0.0,946.408080594
0,940,0.0,944.408080594
0,942,0.0,940.408080594
0,945,0.0,942.408080594
0,945,0.0,945.885656416
0,945,0.0,945.885656416
0,943,0.0,945.885656416
0,940,0.0,943.885656416
0,939,0.0,940.885656416
0,945,0.0,939.885656416
0,944,0.0,945.885656416
0,942,0.0,944.885656416
0,942,0.0,942.885656416
0,938,0.0,942.019959491
0,935,0.0,938.013971644
0,940,0.0,935.013971644
0,937,0.0,940.013971644
0,939,0.0,937.013971644
0,938,0.0,939.013971644
0,935,0.0,938.013971644
0,936,0.0,935.013971644
0,939,0.0,936.013971644
0,943,0.0,939.013971644
0,941,0.0,943.013971644
0,940,0.0,941.013971644
0,938,0.0,939.409780151
0,940,0.0,937.409780151
0,943,0.0,939.409780151
0,946,0.0,942.409780151
0,945,0.0,945.409780151
0,943,0.0,944.409780151
0,942,0.0,942.409780151
0,943,0.0,941.409780151
0,948,0.0,942.286846105
0,953,0.0,947.286846105
0,956,0.0,952.286846105
0,957,0.0,955.286846105
0,955,0.0,956.286846105
0,957,0.0,954.286846105
0,962,0.0,956.286846105
0,962,0.0,961.286846105
0,964,0.0,961.286846105
0,963,0.0,963.286846105
0,963,0.0,962.286846105
0,965,0.0,962.286846105
0,970,0.0,964.286846105
0,972,0.0,969.286846105
0,971,0.0,971.286846105
0,972,0.0,970.286846105
0,967,0.0,971.286846105
0,969,0.0,966.286846105
0,971,0.0,968.286846105
0,971,0.0,970.286846105
0,971,0.0,970.286846105
0,969,0.025,970.286846105
0,966,0.0,968.286846105
0,968,0.0,965.286846105
0,970,0.0,967.286846105
0,970,0.0,969.286846105
0,969,0.0,969.286846105
0,971,0.0,968.286846105
0,968,0.0,970.286846105
0,967,0.0,967.286846105
0,969,0.0,966.286846105
0,971,0.0,968.286846105
0,970,0.0,970.286846105
0,968,0.0,969.286846105
0,967,0.0,967.286846105
0,968,0.0,966.286846105
0,969,0.0,967.286846105
0,972,0.0,968.286846105
0,969,0.0,971.286846105
0,967,0.0,968.286846105
0,965,0.0,966.286846105
0,965,0.0,964.286846105
0,970,0.0,964.286846105
0,970,0.0,969.286846105
0,969,0.0,969.286846105
0,967,0.0,968.286846105
0,967,0.0,966.286846105
0,967,0.0,966.286846105
0,968,0.0,966.286846105
0,971,0.0,967.286846105
0,967,0.0,970.286846105
0,968,0.0,966.286846105
0,963,0.0,967.286846105
0,964,0.0,962.286846105
0,963,0.0,963.286846105
0,967,0.0,962.286846105
0,966,0.0,966.286846105
0,965,0.0,965.286846105
0,960,0.0,964.286846105
0,962,0.0,959.286846105
0,961,0.0,961.286846105
0,966,0.0,960.286846105
0,963,0.0,965.286846105
0,962,0.0,962.286846105
0,960,0.0,961.286846105
0,962,0.0,959.286846105
0,965,0.0,961.286846105
0,968,0.0,964.286846105
0,966,0.0,967.286846105
0,964,0.0,965.286846105
0,962,0.0,963.286846105
0,962,0.0,961.286846105
0,964,0.0,961.286846105
0,965,0.0,963.286846105
0,965,0.0,964.286846105
0,962,0.0,964.286846105
0,960,0.0,961.286846105
0,962,0.0,959.286846105
0,963,0.0,961.286846105
0,965,0.0,962.286846105
0,963,0.0,964.286846105
0,963,0.0,962.286846105
0,962,0.0,962.286846105
0,963,0.0,961.286846105
0,967,0.0,962.286846105
0,967,0.0,966.286846105
0,970,0.0,966.286846105
0,970,0.0,969.286846105
0,972,0.0,969.286846105
0,973,0.0,971.286846105
0,976,0.0,972.286846105
0,980,0.0,975.286846105
0,982,0.0,979.286846105
0,979,0.0,981.286846105
0,976,0.0,978.286846105
0,980,0.0,975.286846105
0,981,0.0,979.286846105
0,985,0.0,980.286846105
0,984,0.0,984.286846105
0,985,0.0,983.286846105
0,981,0.0,984.286846105
0,983,0.0,980.286846105
0,987,0.0,982.286846105
0,990,0.0,986.286846105
0,991,0.0,989.286846105
0,991,0.0,990.286846105
0,988,0.0,990.286846105
0,986,0.0,987.286846105
0,986,0.0,985.286846105
0,988,0.0,985.286846105
0,987,0.0,988.601106681
0,986,0.0,986.286846105
0,985,0.0,985.286846105
0,987,0.0,984.286846105
0,990,0.0,986.286846105
0,997,0.0,989.286846105
0,1000,0.0,997.601106681
0,996,0.0,999.286846105
0,984,0.0,995.286846105
0,980,0.075,983.286846105
0,977,0.0,977.542695638
0,973,0.0,976.286846105
0,973,0.0,972.286846105
0,969,0.0,972.286846105
0,965,0.0,968.286846105
0,962,0.0,964.286846105
0,963,0.0,961.286846105
0,965,0.0,960.977351124
0,966,0.0,964.286846105
0,964,0.0,965.286846105
0,960,0.025,963.286846105
0,963,0.0,959.286846105
0,964,0.0,962.286846105
0,965,0.0,963.286846105
0,965,0.0,964.286846105
0,959,0.0,964.286846105
0,958,0.0,958.286846105
0,957,0.0,957.286846105
0,959,0.0,956.286846105
0,962,0.0,958.286846105
0,959,0.0,961.286846105
0,959,0.025,960.541945912
0,955,0.0,956.977351124
0,958,0.0,954.286846105
0,958,0.0,957.286846105
0,957,0.0,957.286846105
0,959,0.0,956.286846105
0,955,0.0,958.286846105
0,953,0.0,956.541945912
0,951,0.0,952.286846105
0,946,0.0,950.286846105
0,942,0.0,945.286846105
0,936,0.0,941.286846105
0,933,0.0,934.300792274
0,923,0.0,931.300792274
0,919,0.1,921.300792274
0,915,0.0,916.977351124
0,919,0.0,913.300792274
0,939,0.025,917.300792274
0,959,0.15,936.977351124
0,978,0.15,960.770712676
0,997,0.025,983.995181299
0,1017,0.05,1001.62578556
0,1043,0.05,1021.62578556
0,1082,0.025,1047.62578556
0,1127,0.025,1109.8
0,1165,0.0,1154.8
0,1197,0.0,1192.8
0,1220,0.0,1244.0
0,1230,0.225,1224.62578556
0,1225,0.35,1230.0844551
0,1186,0.9,1230.77622614
0,1103,0.15,1111.0
0,1002,0.025,1087.66183863
0,940,0.55,992.745066956
0,923,0.35,930.745066956
0,927,0.225,903.210554592
0,936,0.225,932.776226142
0,944,0.025,916.210554592
0,950,0.125,924.210554592
0,947,0.125,956.743358299
0,949,0.1,953.743358299
0,948,0.025,955.743358299
0,947,0.025,928.210554592
0,945,0.0,953.743358299
0,948,0.025,946.770712676
0,948,0.0,954.743358299
0,950,0.0,954.743358299
0,948,0.025,956.743358299
0,946,0.0,928.210554592
0,946,0.0,926.210554592
0,946,0.025,926.210554592
0,948,0.025,926.210554592
0,949,0.0,954.743358299
0,948,0.0,955.743358299
0,948,0.0,954.743358299
0,944,0.0,928.210554592
0,945,0.0,924.210554592
0,945,0.0,944.925348114
0,947,0.0,925.210554592
0,947,0.0,947.173420576
0,944,0.0,927.210554592
0,942,0.0,944.173420576
0,943,0.0,922.210554592
0,945,0.0,943.173420576
0,944,0.0,945.173420576
0,947,0.0,924.210554592
0,946,0.0,953.743358299
0,942,0.0,926.210554592
0,945,0.0,922.210554592
0,947,0.0,951.743358299
0,948,0.0,927.210554592
0,951,0.0,928.210554592
0,948,0.0,931.210554592
0,945,0.0,928.210554592
0,944,0.0,925.210554592
0,946,0.0,924.210554592
0,946,0.0,926.210554592
0,949,0.0,926.210554592
0,946,0.0,955.743358299
0,946,0.0,946.336914757
0,946,0.0,945.33584033
0,946,0.0,945.535088231
0,947,0.0,926.210554592
0,947,0.0,946.772193233
0,944,0.0,946.772193233
0,942,0.0,943.772193233
0,944,0.025,941.772193233
0,947,0.0,943.772193233
0,948,0.025,946.772193233
0,947,0.0,947.772193233
0,945,0.0,946.772193233
0,945,0.0,944.772193233
0,946,0.0,944.240535263
0,946,0.025,945.468374684
0,948,0.0,945.927862279
0,949,0.0,947.949503595
0,948,0.0,948.949503595
0,946,0.0,947.949503595
0,947,0.0,945.949503595
0,949,0.0,946.364652517
0,950,0.0,948.364652517
0,949,0.05,949.364652517
0,948,0.0,929.210554592
0,946,0.025,947.364652517
0,945,0.0,945.364652517
0,946,0.0,943.955256762
0,944,0.0,944.968679733
0,947,0.0,943.578075813
0,944,0.0,946.578075813
0,945,0.0,943.578075813
0,943,0.0,944.578075813
0,944,0.0,943.004653069
0,947,0.0,944.004653069
0,945,0.05,947.004653069
0,943,0.0,945.004653069
0,940,0.0,942.403257148
0,942,0.0,939.403257148
0,944,0.0,941.403257148
0,945,0.0,943.403257148
0,945,0.0,944.403257148
0,943,0.0,944.882280004
0,942,0.0,942.917596003
0,945,0.0,941.917596003
0,947,0.0,944.917596003
0,948,0.0,947.842317202
0,948,0.0,948.842317202
0,948,0.0,948.842317202
0,947,0.0,948.842317202
0,947,0.0,947.842317202
0,954,0.0,947.842317202
0,955,0.0,954.842317202
0,955,0.0,955.842317202
0,956,0.0,955.842317202
0,954,0.0,956.842317202
0,957,0.0,954.842317202
0,961,0.0,957.842317202
0,964,0.0,961.842317202
0,959,0.05,964.842317202
0,962,0.0,944.247388214
0,960,0.0,962.842317202
0,961,0.0,960.842317202
0,963,0.0,961.842317202
0,967,0.0,963.842317202
0,967,0.0,967.842317202
0,965,0.0,967.842317202
0,962,0.0,965.842317202
0,962,0.0,962.842317202
0,965,0.025,962.842317202
0,968,0.0,965.842317202
0,967,0.0,968.842317202
0,966,0.0,967.842317202
0,965,0.0,966.842317202
0,966,0.025,965.842317202
0,966,0.0,966.842317202
0,969,0.0,966.842317202
0,968,0.0,969.842317202
0,968,0.0,968.842317202
0,966,0.0,968.842317202
0,968,0.0,966.842317202
0,968,0.0,968.842317202
0,969,0.0,968.842317202
0,969,0.0,969.842317202
0,967,0.0,969.842317202
0,964,0.0,967.842317202
0,966,0.0,964.842317202
0,967,0.0,966.842317202
0,965,0.0,967.842317202
0,965,0.0,965.842317202
0,965,0.0,965.842317202
0,961,0.0,965.842317202
0,962,0.0,961.842317202
0,963,0.0,962.842317202
0,962,0.0,963.842317202
0,965,0.0,962.842317202
0,963,0.0,965.842317202
0,958,0.0,963.842317202
0,960,0.0,958.842317202
0,961,0.0,960.842317202
0,963,0.0,961.842317202
0,962,0.0,963.842317202
0,961,0.0,962.842317202
0,958,0.0,961.842317202
0,961,0.0,958.842317202
0,963,0.0,961.842317202
0,963,0.0,963.842317202
0,963,0.0,963.842317202
0,963,0.0,963.842317202
0,960,0.0,963.842317202
0,956,0.0,960.842317202
0,957,0.0,956.842317202
0,961,0.0,957.842317202
0,957,0.0,961.842317202
0,956,0.0,957.842317202
0,954,0.0,956.842317202
0,955,0.0,954.842317202
0,956,0.0,955.842317202
0,958,0.0,956.842317202
0,955,0.0,958.842317202
0,954,0.0,955.842317202
0,952,0.0,954.842317202
0,954,0.0,952.842317202
0,956,0.0,954.842317202
0,956,0.0,956.842317202
0,958,0.0,956.842317202
0,957,0.0,958.842317202
0,956,0.0,957.842317202
0,955,0.0,956.842317202
0,956,0.0,955.842317202
0,957,0.0,956.842317202
0,957,0.0,957.842317202
0,957,0.0,957.842317202
0,955,0.0,957.842317202
0,957,0.0,955.842317202
0,958,0.0,957.842317202
0,960,0.0,958.842317202
0,958,0.0,960.842317202
0,959,0.0,958.842317202
0,957,0.0,959.842317202
0,957,0.0,957.842317202
0,961,0.0,957.842317202
0,962,0.0,961.842317202
0,961,0.0,962.842317202
0,960,0.0,961.842317202
0,958,0.0,960.842317202
0,960,0.0,958.842317202
0,960,0.0,960.842317202
0,966,0.0,960.842317202
0,967,0.0,966.842317202
0,966,0.0,967.842317202
0,966,0.0,966.842317202
0,968,0.0,966.842317202
0,971,0.0,968.842317202
0,974,0.0,971.842317202
0,976,0.0,974.842317202
0,975,0.0,976.842317202
0,974,0.0,975.842317202
0,973,0.0,974.842317202
0,977,0.0,973.842317202
0,980,0.0,977.842317202
0,981,0.0,980.842317202
0,980,0.0,981.842317202
0,980,0.0,980.842317202
0,981,0.0,980.842317202
0,984,0.0,981.842317202
0,987,0.0,984.842317202
0,989,0.0,987.842317202
0,986,0.0,989.842317202
0,980,0.0,986.842317202
0,980,0.0,965.247388214
0,981,0.0,980.842317202
0,983,0.0,981.842317202
0,986,0.0,983.842317202
0,984,0.0,986.842317202
0,981,0.0,984.842317202
0,984,0.0,981.842317202
0,989,0.0,984.842317202
0,990,0.0,989.842317202
0,985,0.0,990.842317202
0,976,0.0,970.247388214
0,970,0.0,961.247388214
0,970,0.0,955.247388214
0,970,0.0,970.842317202
0,966,0.0,970.842317202
0,962,0.0,951.247388214
0,960,0.0,947.247388214
0,956,0.0,960.842317202
0,953,0.0,941.247388214
0,954,0.0,953.842317202
0,956,0.0,954.842317202
0,954,0.0,956.842317202
0,952,0.0,954.842317202
0,950,0.0,952.842317202
0,949,0.0,950.842317202
0,950,0.0,949.842317202
0,951,0.0,950.842317202
0,952,0.0,951.842317202
0,949,0.0,952.842317202
0,948,0.0,949.842317202
0,950,0.0,948.842317202
0,949,0.0,950.842317202
0,950,0.0,949.842317202
0,949,0.0,950.842317202
0,946,0.0,949.842317202
0,945,0.0,946.842317202
0,946,0.0,944.689622041
0,947,0.0,945.482735429
0,951,0.0,946.9379148
0,952,0.0,950.9379148
0,951,0.0,951.9379148
0,950,0.0,950.9379148
0,948,0.0,949.9379148
0,948,0.0,947.9379148
0,945,0.0,947.9379148
0,936,0.0,944.9379148
0,928,0.0,921.247388214
0,922,0.0,913.247388214
0,923,0.0,907.247388214
0,923,0.0,922.05654036
0,916,0.0,922.05654036
0,907,0.0,901.247388214
0,904,0.0,892.247388214
0,914,0.0,903.05654036
0,936,0.025,913.05654036
0,959,0.0,963.8
0,991,0.025,968.9364
0,1023,0.025,1018.8
0,1071,0.0,1050.8
0,1120,0.0,1098.8
0,1166,0.0,1147.8
0,1189,0.0,1193.8
0,1195,0.0,1195.37460762
0,1162,0.925,1180.24738821
0,1088,0.1,1087.4
0,1005,0.0,1078.74506696
0,940,0.0,989.66183863
0,914,0.075,930.745066956
0,914,0.1,904.745066956
0,928,0.225,884.17317175
0,935,0.1,949.26
0,935,0.0,905.17317175
0,937,0.0,934.05654036
0,934,0.0,936.05654036
0,938,0.0,933.05654036
0,936,0.0,937.05654036
0,938,0.0,935.05654036
0,936,0.0,937.05654036
0,934,0.0,935.05654036
0,936,0.0,933.05654036
0,938,0.0,935.05654036
0,938,0.0,937.05654036
0,932,0.0,937.05654036
0,935,0.0,902.17317175
0,935,0.0,934.05654036
0,936,0.0,934.05654036
0,936,0.0,935.05654036
0,937,0.0,935.05654036
0,933,0.0,936.05654036
0,934,0.0,932.05654036
0,934,0.0,933.05654036
0,937,0.0,933.05654036
0,939,0.0,936.05654036
0,937,0.0,938.05654036
0,935,0.0,936.05654036
0,935,0.0,934.05654036
0,937,0.0,934.05654036
0,938,0.0,936.05654036
0,941,0.0,937.05654036
0,941,0.0,940.05654036
0,939,0.0,940.05654036
0,935,0.0,938.05654036
0,937,0.0,934.05654036
0,938,0.0,936.05654036
0,940,0.0,937.05654036
0,940,0.0,939.05654036
0,937,0.0,939.05654036
0,934,0.0,936.05654036
0,931,0.0,933.05654036
0,934,0.0,930.05654036
0,935,0.0,933.05654036
0,934,0.0,934.05654036
0,932,0.0,933.05654036
0,932,0.0,931.05654036
0,932,0.0,931.05654036
0,934,0.0,931.05654036
0,934,0.0,933.05654036
0,935,0.0,933.05654036
0,933,0.0,934.05654036
0,932,0.0,932.05654036
0,934,0.0,931.05654036
0,935,0.0,933.05654036
0,937,0.0,934.05654036
0,940,0.0,936.05654036
0,938,0.0,939.05654036
0,934,0.0,937.05654036
0,938,0.0,930.119264976
0,937,0.0,937.05654036
0,940,0.0,936.05654036
0,939,0.0,939.05654036
0,938,0.0,938.05654036
0,933,0.0,937.05654036
0,934,0.0,933.127662057
0,936,0.0,933.05654036
0,940,0.0,935.05654036
0,939,0.0,939.05654036
0,939,0.0,938.05654036
0,934,0.0,938.05654036
0,936,0.0,933.838954865
0,937,0.0,935.05654036
0,938,0.0,936.05654036
0,934,0.0,939.057788086
0,935,0.0,933.838954865
0,933,0.0,936.057788086
0,934,0.0,932.05654036
0,934,0.0,935.057788086
0,933,0.0,935.057788086
0,930,0.0,932.05654036
0,928,0.0,929.05654036
0,929,0.0,927.05654036
0,933,0.0,930.057788086
0,933,0.0,934.057788086
0,935,0.0,934.057788086
0,937,0.0,936.057788086
0,933,0.0,938.057788086
0,930,0.0,932.838954865
0,929,0.0,929.05654036
0,932,0.0,928.05654036
0,935,0.0,933.34045166
0,935,0.0,936.34045166
0,934,0.0,936.34045166
0,935,0.0,933.05654036
0,937,0.0,936.34045166
0,939,0.0,938.34045166
0,943,0.0,940.538316162
0,947,0.0,944.538316162
0,944,0.0,948.538316162
0,947,0.0,943.05654036
0,948,0.0,948.538316162
0,951,0.0,949.538316162
0,951,0.0,952.538316162
0,954,0.0,952.538316162
0,952,0.0,955.538316162
0,951,0.0,951.05654036
0,951,0.0,952.538316162
0,953,0.0,952.538316162
0,953,0.0,954.538316162
0,956,0.0,954.538316162
0,955,0.0,957.538316162
0,953,0.0,956.538316162
0,954,0.0,952.05654036
0,958,0.0,955.538316162
0,959,0.0,959.538316162
0,958,0.0,960.538316162
0,956,0.0,959.538316162
0,955,0.0,955.05654036
0,956,0.0,956.538316162
0,958,0.0,957.538316162
0,960,0.0,959.538316162
0,961,0.0,961.538316162
0,960,0.0,962.538316162
0,958,0.0,961.538316162
0,958,0.0,957.05654036
0,958,0.0,959.538316162
0,955,0.0,959.538316162
0,959,0.0,954.05654036
0,957,0.0,960.538316162
0,956,0.0,956.05654036
0,955,0.0,957.538316162
0,956,0.0,956.538316162
0,956,0.0,957.538316162
0,958,0.0,957.538316162
0,955,0.0,959.538316162
0,953,0.0,954.05654036
0,953,0.0,954.538316162
0,955,0.0,954.538316162
0,956,0.0,956.538316162
0,955,0.0,957.538316162
0,952,0.0,956.538316162
0,950,0.0,953.538316162
0,952,0.0,951.538316162
0,954,0.0,953.538316162
0,955,0.0,955.538316162
0,952,0.0,956.538316162
0,951,0.0,953.538316162
0,946,0.0,952.538316162
0,946,0.0,947.538316162
0,950,0.0,947.538316162
0,950,0.0,951.538316162
0,951,0.0,951.538316162
0,949,0.0,952.538316162
0,949,0.0,947.487704776
0,949,0.0,950.538316162
0,950,0.0,950.538316162
0,950,0.0,951.538316162
0,949,0.0,951.538316162
0,948,0.0,947.487704776
0,945,0.0,946.487704776
0,944,0.0,943.487704776
0,945,0.0,942.041393344
0,947,0.0,946.538316162
0,949,0.0,948.538316162
0,948,0.0,950.538316162
0,945,0.0,946.92897534
0,944,0.0,943.92897534
0,945,0.0,942.350282738
0,946,0.0,943.350282738
0,948,0.0,945.145197917
0,946,0.0,947.701638542
0,943,0.0,945.701638542
0,942,0.0,942.191146979
0,943,0.0,941.191146979
0,946,0.0,942.191146979
0,945,0.0,945.191146979
0,945,0.0,945.333802885
0,944,0.0,944.93366202
0,944,0.0,943.953563414
0,946,0.0,943.953563414
0,947,0.0,945.953563414
0,947,0.0,947.56749439
0,944,0.0,947.56749439
0,944,0.0,944.56749439
0,944,0.0,944.56749439
0,945,0.0,944.56749439
0,949,0.0,945.56749439
0,947,0.0,949.697246073
0,945,0.0,947.697246073
0,945,0.0,945.697246073
0,947,0.0,944.888072251
0,946,0.0,946.921650576
0,948,0.0,945.921650576
0,947,0.0,947.645155403
0,949,0.0,946.645155403
0,949,0.0,948.645155403
0,952,0.0,948.645155403
0,954,0.0,951.645155403
0,956,0.0,953.645155403
0,958,0.0,955.645155403
0,956,0.0,957.645155403
0,958,0.0,955.645155403
0,962,0.0,957.645155403
0,964,0.0,961.645155403
0,966,0.0,963.645155403
0,967,0.0,965.645155403
0,967,0.0,966.645155403
0,966,0.0,966.645155403
0,968,0.0,965.645155403
0,971,0.0,967.645155403
0,972,0.0,970.645155403
0,975,0.0,971.645155403
0,973,0.0,974.645155403
0,972,0.0,972.645155403
0,971,0.0,971.645155403
0,970,0.0,970.645155403
0,967,0.0,969.645155403
0,969,0.0,966.645155403
0,968,0.0,968.645155403
0,968,0.0,967.645155403
0,966,0.0,967.645155403
0,970,0.0,965.645155403
0,972,0.0,969.645155403
0,974,0.0,971.645155403
0,977,0.0,973.645155403
0,972,0.025,976.645155403
0,964,0.0,971.645155403
0,961,0.0,964.487268405
0,960,0.0,960.645155403
0,959,0.0,959.645155403
0,957,0.0,958.645155403
0,953,0.0,956.645155403
0,953,0.0,952.645155403
0,952,0.0,952.645155403
0,953,0.0,951.645155403
0,946,0.0,952.645155403
0,944,0.0,946.487268405
0,942,0.0,941.651608782
0,937,0.0,939.651608782
0,941,0.0,934.651608782
0,943,0.0,938.651608782
0,944,0.0,940.651608782
0,942,0.0,941.651608782
0,939,0.0,939.651608782
0,943,0.025,936.651608782
0,943,0.0,940.651608782
0,945,0.0,940.651608782
0,944,0.0,942.651608782
0,941,0.0,942.956126147
0,937,0.0,939.956126147
0,936,0.0,935.956126147
0,940,0.0,934.956126147
0,940,0.0,938.956126147
0,941,0.0,938.956126147
0,938,0.0,939.956126147
0,937,0.0,936.956126147
0,938,0.0,935.956126147
0,940,0.0,936.956126147
0,940,0.0,938.956126147
0,941,0.0,938.956126147
0,942,0.0,939.956126147
0,941,0.0,940.956126147
0,939,0.0,939.956126147
0,938,0.0,937.956126147
0,933,0.0,936.956126147
0,925,0.0,931.956126147
0,916,0.0,924.888183641
0,913,0.0,915.888183641
0,905,0.0,911.956126147
0,898,0.0,904.888183641
0,899,0.0,897.888183641
0,912,0.0,897.956126147
0,933,0.0,910.956126147
0,956,0.0,954.26
0,989,0.0,977.26
0,1027,0.0,1010.26
0,1078,0.0,1048.26
0,1131,0.0,1099.26
0,1175,0.025,1152.26
0,1195,0.025,1196.26
0,1200,0.0,1193.95612615
0,1172,0.275,1198.95612615
0,1110,0.075,1166.87078562
0,1026,0.0,1104.87078562
0,958,0.0,1010.66183863
0,920,0.125,952.870785623
0,904,0.075,845.4
0,908,0.6,903.888183641
0,919,0.175,907.888183641
0,926,0.075,917.75684971
0,930,0.0,924.956126147
0,926,0.0,928.956126147
0,927,0.0,924.956126147
0,930,0.0,925.956126147
0,928,0.0,928.956126147
0,932,0.0,926.956126147
0,932,0.0,930.956126147
0,929,0.0,930.956126147
0,932,0.0,927.956126147
0,932,0.0,930.956126147
0,934,0.0,930.956126147
0,934,0.0,932.956126147
0,932,0.0,932.956126147
0,930,0.0,930.956126147
0,930,0.0,928.956126147
0,933,0.0,928.956126147
0,933,0.0,931.956126147
0,931,0.0,931.956126147
0,929,0.0,929.956126147
0,929,0.0,927.956126147
0,931,0.0,927.956126147
0,933,0.0,929.956126147
0,936,0.0,931.956126147
0,933,0.0,934.956126147
0,931,0.0,931.956126147
0,927,0.0,929.956126147
0,926,0.0,925.956126147
0,930,0.0,924.956126147
0,930,0.0,928.956126147
0,932,0.0,928.956126147
0,930,0.0,930.956126147
0,927,0.0,928.956126147
0,926,0.0,925.956126147
0,930,0.0,924.956126147
0,931,0.0,928.956126147
0,930,0.0,929.956126147
0,927,0.0,928.956126147
0,923,0.0,925.956126147
0,927,0.0,921.956126147
0,929,0.0,925.956126147
0,931,0.0,927.956126147
0,930,0.0,929.956126147
0,930,0.0,928.956126147
0,929,0.0,928.956126147
0,927,0.0,927.956126147
0,929,0.0,925.956126147
0,930,0.0,927.956126147
0,931,0.0,928.956126147
0,927,0.0,929.956126147
0,926,0.0,925.956126147
0,924,0.0,924.956126147
0,927,0.0,922.956126147
0,929,0.0,925.956126147
0,929,0.0,927.956126147
0,928,0.0,927.956126147
0,924,0.0,926.956126147
0,927,0.0,922.956126147
0,927,0.0,925.956126147
0,929,0.0,925.956126147
0,930,0.0,927.956126147
0,928,0.0,928.956126147
0,922,0.0,926.956126147
0,926,0.0,921.888183641
0,928,0.0,924.956126147
0,929,0.0,926.956126147
0,929,0.0,927.956126147
0,928,0.0,927.956126147
0,925,0.0,926.956126147
0,927,0.0,923.956126147
0,927,0.0,925.956126147
0,929,0.0,925.956126147
0,926,0.0,927.956126147
0,924,0.0,924.956126147
0,921,0.0,922.956126147
0,919,0.0,919.956126147
0,921,0.0,917.956126147
0,919,0.0,919.956126147
0,920,0.0,917.956126147
0,918,0.0,918.956126147
0,920,0.0,916.956126147
0,917,0.0,918.956126147
0,920,0.0,915.956126147
0,920,0.0,918.956126147
0,921,0.0,918.956126147
0,920,0.0,919.956126147
0,918,0.0,918.956126147
0,919,0.0,916.956126147
0,918,0.0,917.956126147
0,924,0.0,916.956126147
0,923,0.0,922.956126147
0,925,0.0,921.956126147
0,923,0.0,923.956126147
0,925,0.0,921.956126147
0,929,0.0,923.956126147
0,932,0.0,927.956126147
0,934,0.0,930.956126147
0,932,0.025,932.956126147
0,932,0.0,930.956126147
0,932,0.0,930.956126147
0,936,0.0,930.956126147
0,939,0.0,934.956126147
0,942,0.0,937.956126147
0,942,0.0,940.956126147
0,943,0.0,940.956126147
0,944,0.0,941.956126147
0,948,0.0,942.956126147
0,951,0.0,946.956126147
0,952,0.025,949.956126147
0,950,0.0,950.956126147
0,951,0.0,948.956126147
0,953,0.0,949.956126147
0,956,0.0,951.956126147
0,959,0.0,954.956126147
0,959,0.0,957.956126147
0,959,0.0,957.956126147
0,958,0.025,957.956126147
0,960,0.025,956.956126147
0,959,0.0,958.956126147
0,961,0.0,957.956126147
0,961,0.0,959.956126147
0,962,0.0,959.956126147
0,959,0.0,962.982338926
0,958,0.0,957.956126147
0,962,0.0,956.956126147
0,962,0.0,960.956126147
0,961,0.0,959.303686544
0,959,0.0,959.956126147
0,957,0.0,957.956126147
0,959,0.0,955.956126147
0,960,0.0,957.956126147
0,961,0.0,958.956126147
0,961,0.0,959.956126147
0,958,0.0,959.956126147
0,957,0.0,956.956126147
0,957,0.0,955.956126147
0,959,0.0,955.956126147
0,961,0.0,957.956126147
0,960,0.0,959.956126147
0,958,0.0,958.956126147
0,959,0.0,959.220856358
0,955,0.025,957.956126147
0,959,0.0,956.220856358
0,960,0.025,957.956126147
0,960,0.0,958.956126147
0,958,0.0,958.956126147
0,957,0.0,956.956126147
0,957,0.0,958.220856358
0,957,0.0,955.956126147
0,961,0.0,955.956126147
0,961,0.0,959.956126147
0,957,0.0,959.956126147
0,955,0.0,958.98280633
0,956,0.0,953.956126147
0,956,0.0,954.956126147
0,958,0.0,954.956126147
0,954,0.025,956.956126147
0,953,0.0,955.220856358
0,952,0.025,951.956126147
0,953,0.0,950.956126147
0,955,0.025,951.956126147
0,958,0.0,956.220856358
0,955,0.0,956.956126147
0,956,0.0,956.220856358
0,953,0.0,956.214637708
0,954,0.0,951.956126147
0,956,0.0,952.956126147
0,959,0.0,954.956126147
0,959,0.0,957.956126147
0,958,0.0,957.956126147
0,955,0.0,956.956126147
0,955,0.0,955.821728548
0,957,0.0,955.60043855
0,960,0.0,958.220856358
0,956,0.0,958.956126147
0,955,0.0,957.220856358
0,953,0.0,953.956126147
0,953,0.0,954.220856358
0,955,0.0,951.956126147
0,957,0.0,953.956126147
0,956,0.0,955.956126147
0,954,0.0,954.956126147
0,953,0.0,952.956126147
0,954,0.0,951.956126147
0,955,0.0,955.220856358
0,959,0.0,954.502316823
0,957,0.0,957.956126147
0,954,0.0,955.956126147
0,954,0.0,952.956126147
0,953,0.0,952.956126147
0,955,0.0,951.956126147
0,958,0.0,953.956126147
0,959,0.0,956.956126147
0,961,0.0,957.956126147
0,960,0.0,962.723950423
0,963,0.0,960.821728548
0,966,0.0,964.723950423
0,968,0.0,967.723950423
0,970,0.0,966.956126147
0,971,0.0,968.956126147
0,970,0.0,972.723950423
0,972,0.0,968.956126147
0,975,0.0,970.956126147
0,976,0.0,976.723950423
0,977,0.0,974.956126147
0,977,0.0,978.723950423
0,978,0.0,978.723950423
0,978,0.0,979.723950423
0,982,0.025,979.723950423
0,985,0.0,980.956126147
0,980,0.0,983.956126147
0,980,0.0,978.956126147
0,979,0.0,981.723950423
0,977,0.0,977.956126147
0,978,0.0,975.956126147
0,982,0.0,976.956126147
0,982,0.0,980.956126147
0,981,0.0,983.723950423
0,978,0.0,979.956126147
0,980,0.0,976.956126147
0,984,0.0,978.956126147
0,991,0.0,984.214637708
0,992,0.0,989.956126147
0,989,0.0,993.723950423
0,978,0.0,987.956126147
0,972,0.0,976.956126147
0,972,0.025,972.821728548
0,972,0.0,973.723950423
0,969,0.0,973.723950423
0,966,0.0,967.956126147
0,962,0.0,964.956126147
0,960,0.0,962.566135243
0,958,0.0,958.956126147
0,958,0.0,958.821728548
0,957,0.0,958.606765296
0,954,0.0,955.956126147
0,953,0.0,954.424735707
0,954,0.0,951.956126147
0,957,0.0,954.424735707
0,957,0.0,955.956126147
0,956,0.0,957.424735707
0,953,0.0,954.956126147
0,952,0.0,953.821728548
0,951,0.0,950.956126147
0,953,0.0,949.956126147
0,953,0.0,953.424735707
0,953,0.0,951.956126147
0,951,0.025,953.424735707
0,950,0.0,949.956126147
0,950,0.0,948.956126147
0,952,0.0,950.424735707
0,953,0.0,950.956126147
0,954,0.0,951.956126147
0,950,0.0,952.956126147
0,950,0.0,950.09629467
0,951,0.0,950.424735707
0,952,0.0,951.424735707
0,954,0.0,952.424735707
0,955,0.0,952.956126147
0,950,0.0,955.424735707
0,948,0.0,948.956126147
0,942,0.0,946.956126147
0,938,0.0,942.821728548
0,933,0.0,938.367406269
0,927,0.0,934.220856358
0,924,0.0,927.821728548
0,915,0.0,922.956126147
0,911,0.0,915.821728548
0,915,0.0,911.367406269
0,936,0.0,913.956126147
0,962,0.075,956.882
0,991,0.025,982.882
0,1023,0.0,1011.882
0,1071,0.025,1043.882
0,1130,0.025,1091.882
0,1180,0.0,1150.882
0,1212,0.0,1200.882
0,1223,0.0,1232.882
0,1200,0.825,1223.82172855
0,1137,0.125,1194.87078562
0,1049,0.0,1131.87078562
0,974,0.05,1033.66183863
0,928,0.075,958.66183863
0,913,0.0,853.4
0,921,0.8,913.821728548
0,934,0.25,921.821728548
0,942,0.05,966.0
0,944,0.025,949.154599451
0,945,0.0,944.424735707
0,941,0.0,945.424735707
0,939,0.0,941.821728548
0,940,0.0,938.569288303
0,940,0.0,940.424735707
0,942,0.0,940.424735707
0,943,0.0,941.569288303
0,940,0.0,943.424735707
0,940,0.0,940.741681102
0,939,0.0,940.424735707
0,942,0.0,938.569288303
0,943,0.0,942.424735707
0,942,0.0,943.424735707
0,941,0.0,941.569288303
0,941,0.0,940.569288303
0,941,0.0,941.424735707
0,941,0.0,941.424735707
0,945,0.0,941.424735707
0,942,0.0,945.424735707
0,939,0.0,942.898501812
0,939,0.0,939.898501812
0,937,0.0,939.898501812
0,937,0.0,937.898501812
0,941,0.0,937.898501812
0,940,0.0,941.424735707
0,939,0.0,940.898501812
0,939,0.0,939.898501812
0,939,0.0,939.898501812
0,940,0.0,938.313775956
0,941,0.0,939.519643169
0,940,0.0,940.963750218
0,939,0.0,939.963750218
0,937,0.0,938.674625153
0,938,0.0,936.472237607
0,943,0.0,937.472237607
0,944,0.0,942.472237607
0,942,0.0,943.472237607
0,942,0.0,941.472237607
0,942,0.0,941.472237607
0,940,0.0,941.472237607
0,939,0.0,939.472237607
0,942,0.0,938.030566325
0,940,0.0,941.021396427
0,941,0.0,939.021396427
0,937,0.0,939.714977499
0,938,0.0,935.714977499
0,940,0.0,936.714977499
0,942,0.0,938.714977499
0,942,0.0,941.700484249
0,942,0.0,941.700484249
0,940,0.0,941.700484249
0,939,0.0,939.700484249
0,942,0.0,938.190338975
0,944,0.0,941.133237282
0,942,0.0,943.133237282
0,941,0.0,941.133237282
0,940,0.0,940.133237282
0,940,0.0,939.133237282
0,940,0.0,939.093266098
0,942,0.0,939.365286268
0,943,0.0,941.555700388
0,941,0.0,942.555700388
0,941,0.0,940.555700388
0,941,0.0,940.555700388
0,941,0.0,940.555700388
0,944,0.0,940.555700388
0,941,0.0,943.555700388
0,941,0.0,940.555700388
0,939,0.0,940.555700388
0,939,0.0,938.555700388
0,941,0.0,938.088990271
0,942,0.0,940.36229319
0,941,0.0,941.36229319
0,940,0.0,940.36229319
0,937,0.0,939.36229319
0,939,0.0,936.253605233
0,941,0.0,938.253605233
0,943,0.0,941.077523663
0,944,0.0,943.077523663
0,940,0.0,944.077523663
0,941,0.0,940.077523663
0,940,0.0,939.854266564
0,942,0.0,938.854266564
0,942,0.0,940.897986595
0,939,0.0,940.897986595
0,940,0.0,937.897986595
0,938,0.0,938.328590616
0,940,0.0,937.130013432
0,941,0.0,939.130013432
0,943,0.0,940.991009402
0,943,0.0,942.991009402
0,944,0.0,942.991009402
0,942,0.0,943.991009402
0,943,0.0,941.991009402
0,948,0.0,942.991009402
0,951,0.0,947.991009402
0,952,0.0,950.991009402
0,952,0.0,951.991009402
0,952,0.0,951.991009402
0,954,0.0,951.991009402
0,959,0.0,953.991009402
0,964,0.0,958.991009402
0,962,0.0,963.991009402
0,962,0.0,961.991009402
0,963,0.0,961.991009402
0,963,0.0,962.991009402
0,964,0.0,962.991009402
0,968,0.0,963.991009402
0,965,0.0,967.991009402
0,962,0.0,964.991009402
0,961,0.0,961.991009402
0,958,0.0,960.991009402
0,963,0.0,957.991009402
0,964,0.0,962.991009402
0,963,0.0,963.991009402
0,963,0.0,962.991009402
0,962,0.0,962.991009402
0,962,0.0,961.991009402
0,963,0.0,961.991009402
0,964,0.0,962.991009402
0,964,0.0,963.991009402
0,961,0.0,963.991009402
0,960,0.0,960.991009402
0,959,0.0,959.991009402
0,962,0.0,958.991009402
0,964,0.0,961.991009402
0,966,0.0,963.991009402
0,963,0.0,965.991009402
0,962,0.0,962.991009402
0,961,0.0,961.991009402
0,962,0.0,960.991009402
0,962,0.0,961.991009402
0,962,0.0,961.991009402
0,962,0.0,961.991009402
0,959,0.0,961.991009402
0,956,0.0,958.991009402
0,958,0.0,955.991009402
0,961,0.0,957.991009402
0,959,0.0,960.991009402
0,959,0.0,958.991009402
0,955,0.0,958.991009402
0,956,0.0,954.991009402
0,956,0.0,955.991009402
0,957,0.0,955.991009402
0,957,0.0,956.991009402
0,952,0.0,956.991009402
0,953,0.0,951.991009402
0,955,0.0,952.991009402
0,956,0.0,954.991009402
0,956,0.0,955.991009402
0,956,0.0,955.991009402
0,956,0.0,955.991009402
0,954,0.0,955.991009402
0,953,0.0,953.991009402
0,953,0.0,952.991009402
0,956,0.0,952.991009402
0,956,0.0,955.991009402
0,955,0.0,955.991009402
0,953,0.0,954.991009402
0,951,0.0,952.991009402
0,951,0.0,950.991009402
0,954,0.0,950.991009402
0,953,0.0,953.991009402
0,953,0.0,952.991009402
0,950,0.0,952.991009402
0,949,0.0,949.991009402
0,952,0.0,948.991009402
0,953,0.0,951.991009402
0,949,0.0,952.991009402
0,949,0.0,948.991009402
0,948,0.0,948.991009402
0,949,0.0,947.991009402
0,952,0.0,948.991009402
0,954,0.0,951.991009402
0,952,0.0,953.991009402
0,952,0.0,951.991009402
0,951,0.0,951.991009402
0,953,0.0,950.991009402
0,955,0.0,952.991009402
0,958,0.0,954.991009402
0,956,0.0,957.991009402
0,957,0.0,955.991009402
0,957,0.0,956.991009402
0,960,0.0,956.991009402
0,964,0.0,959.991009402
0,967,0.0,963.991009402
0,967,0.0,966.991009402
0,966,0.0,966.991009402
0,967,0.0,965.991009402
0,968,0.0,966.991009402
0,969,0.0,967.991009402
0,972,0.0,968.991009402
0,972,0.0,971.991009402
0,972,0.0,971.991009402
0,973,0.0,971.991009402
0,975,0.0,972.991009402
0,978,0.0,974.991009402
0,982,0.0,977.991009402
0,982,0.0,981.991009402
0,980,0.0,981.991009402
0,978,0.0,979.991009402
0,976,0.0,977.991009402
0,977,0.0,975.991009402
0,979,0.0,976.991009402
0,982,0.0,978.991009402
0,980,0.0,981.991009402
0,979,0.0,979.991009402
0,979,0.0,978.991009402
0,982,0.0,978.991009402
0,987,0.025,981.991009402
0,983,0.0,986.991009402
0,973,0.0,982.991009402
0,966,0.0,972.991009402
0,962,0.0,965.991009402
0,966,0.0,961.991009402
0,964,0.0,965.991009402
0,962,0.0,963.991009402
0,956,0.0,961.991009402
0,954,0.0,955.991009402
0,950,0.0,953.991009402
0,951,0.0,949.991009402
0,952,0.0,950.991009402
0,951,0.0,951.991009402
0,948,0.0,950.991009402
0,949,0.0,947.991009402
0,946,0.0,948.991009402
0,948,0.0,945.991009402
0,949,0.0,947.991009402
0,950,0.0,948.991009402
0,948,0.0,949.991009402
0,948,0.0,947.991009402
0,946,0.0,947.991009402
0,948,0.0,945.991009402
0,948,0.0,947.991009402
0,949,0.0,947.991009402
0,945,0.0,948.991009402
0,943,0.0,944.991009402
0,943,0.0,942.991009402
0,944,0.0,942.991009402
0,947,0.0,943.991009402
0,945,0.0,946.991009402
0,943,0.0,944.991009402
0,943,0.0,942.991009402
0,943,0.0,942.991009402
0,942,0.0,942.991009402
0,944,0.0,941.991009402
0,939,0.0,943.991009402
0,929,0.0,938.991009402
0,922,0.0,927.493706581
0,917,0.0,920.493706581
0,917,0.0,915.493706581
0,910,0.0,915.493706581
0,905,0.0,908.493706581
0,910,0.0,903.493706581
0,929,0.0,908.493706581
0,954,0.0,949.882
0,984,0.0,974.882
0,1024,0.0,1004.882
0,1076,0.0,1044.882
0,1132,0.0,1096.882
0,1170,0.0,1152.882
0,1192,0.0,1190.882
0,1189,0.025,1212.882
0,1152,0.85,1187.49370658
0,1075,0.05,1143.90954994
0,991,0.0,1066.90954994
0,931,0.0,975.66183863
0,904,0.025,922.909549936
0,905,0.05,895.909549936
0,919,0.05,903.493706581
0,930,0.0,953.4
0,933,0.0,929.02441353
0,931,0.0,931.493706581
0,929,0.0,929.493706581
0,933,0.0,927.493706581
0,936,0.0,931.493706581
0,935,0.0,934.493706581
0,934,0.0,933.493706581
0,933,0.0,932.493706581
0,934,0.0,931.493706581
0,935,0.0,932.493706581
0,936,0.0,933.493706581
0,936,0.0,934.493706581
0,935,0.0,934.493706581
0,934,0.0,933.493706581
0,931,0.0,932.493706581
0,935,0.0,929.493706581
0,937,0.0,933.493706581
0,938,0.0,935.493706581
0,935,0.0,936.493706581
0,931,0.0,933.493706581
0,931,0.0,929.493706581
0,933,0.0,929.493706581
0,935,0.0,931.493706581
0,934,0.0,933.493706581
0,932,0.0,932.493706581
0,932,0.0,930.493706581
0,932,0.0,930.493706581
0,933,0.0,930.493706581
0,934,0.0,931.493706581
0,933,0.0,932.493706581
0,933,0.0,931.493706581
0,931,0.0,931.493706581
0,931,0.0,929.493706581
0,933,0.0,929.493706581
0,934,0.0,931.493706581
0,932,0.0,932.493706581
0,931,0.0,930.493706581
0,931,0.0,929.493706581
0,932,0.0,929.493706581
0,935,0.0,930.493706581
0,939,0.0,933.493706581
0,936,0.0,937.493706581
0,937,0.0,936.145594607
0,933,0.0,937.145594607
0,935,0.0,933.145594607
0,937,0.0,935.145594607
0,937,0.0,937.145594607
0,935,0.0,937.145594607
0,933,0.0,935.145594607
0,932,0.0,933.145594607
0,933,0.0,932.145594607
0,935,0.0,933.145594607
0,934,0.0,935.145594607
0,934,0.0,934.145594607
0,935,0.0,934.145594607
0,934,0.0,935.145594607
0,934,0.0,934.145594607
0,935,0.0,934.145594607
0,936,0.0,935.145594607
0,937,0.0,936.145594607
0,936,0.0,937.145594607
0,935,0.0,936.145594607
0,936,0.0,935.145594607
0,936,0.0,936.145594607
0,938,0.0,936.145594607
0,936,0.0,938.145594607
0,935,0.0,936.145594607
0,934,0.0,935.145594607
0,933,0.0,934.145594607
0,936,0.0,933.145594607
0,938,0.0,936.145594607
0,936,0.0,938.145594607
0,936,0.0,936.145594607
0,933,0.0,936.145594607
0,932,0.0,933.145594607
0,935,0.0,932.145594607
0,937,0.0,935.145594607
0,935,0.0,937.145594607
0,935,0.0,935.145594607
0,935,0.0,935.145594607
0,931,0.0,935.145594607
0,932,0.0,931.145594607
0,935,0.0,932.145594607
0,936,0.0,935.145594607
0,935,0.0,936.145594607
0,934,0.0,935.145594607
0,932,0.0,934.145594607
0,937,0.0,932.145594607
0,938,0.0,937.145594607
0,938,0.0,938.145594607
0,935,0.0,938.145594607
0,935,0.0,935.145594607
0,935,0.0,935.145594607
0,937,0.0,935.145594607
0,942,0.0,937.145594607
0,941,0.0,942.145594607
0,942,0.0,941.145594607
0,943,0.0,942.145594607
0,943,0.0,943.145594607
0,948,0.0,943.145594607
0,951,0.0,948.145594607
0,952,0.0,951.145594607
0,952,0.0,952.145594607
0,951,0.0,952.145594607
0,953,0.0,951.145594607
0,955,0.0,953.145594607
0,957,0.0,955.145594607
0,955,0.0,957.145594607
0,957,0.0,955.145594607
0,959,0.0,957.145594607
0,959,0.0,959.145594607
0,960,0.0,959.145594607
0,964,0.0,960.145594607
0,963,0.0,964.145594607
0,960,0.0,963.145594607
0,958,0.0,960.145594607
0,959,0.0,958.145594607
0,961,0.0,959.145594607
0,962,0.0,961.145594607
0,961,0.0,962.145594607
0,960,0.0,961.145594607
0,956,0.0,960.145594607
0,956,0.0,956.145594607
0,958,0.0,956.145594607
0,961,0.0,958.145594607
0,959,0.0,961.145594607
0,958,0.0,959.145594607
0,956,0.0,958.145594607
0,956,0.0,956.145594607
0,958,0.0,956.145594607
0,958,0.0,958.145594607
0,956,0.0,958.145594607
0,958,0.0,957.976559325
0,955,0.0,958.145594607
0,955,0.0,955.145594607
0,955,0.0,955.145594607
0,958,0.0,955.145594607
0,956,0.0,958.145594607
0,956,0.0,956.145594607
0,953,0.0,956.145594607
0,955,0.0,953.145594607
0,956,0.0,954.134395979
0,958,0.0,956.145594607
0,957,0.0,958.29585403
0,955,0.0,957.145594607
0,953,0.0,955.145594607
0,953,0.0,953.145594607
0,954,0.0,952.607097821
0,952,0.0,953.607097821
0,952,0.0,952.145594607
0,952,0.0,951.607097821
0,950,0.0,951.607097821
0,951,0.0,950.145594607
0,953,0.0,950.607097821
0,952,0.0,952.607097821
0,952,0.0,952.145594607
0,947,0.0,951.607097821
0,948,0.0,947.145594607
0,946,0.0,947.607097821
0,948,0.0,946.145594607
0,949,0.0,947.607097821
0,951,0.0,948.607097821
0,950,0.0,950.607097821
0,949,0.0,950.145594607
0,948,0.0,949.145594607
0,949,0.0,948.145594607
0,951,0.0,948.607097821
0,950,0.0,950.607097821
0,949,0.0,950.145594607
0,948,0.0,949.145594607
0,949,0.0,948.145594607
0,950,0.0,948.607097821
0,953,0.0,949.607097821
0,952,0.0,952.607097821
0,951,0.0,952.145594607
0,949,0.0,951.145594607
0,950,0.0,949.145594607
0,952,0.0,949.607097821
0,954,0.0,951.607097821
0,953,0.0,953.607097821
0,951,0.0,953.145594607
0,950,0.0,951.145594607
0,948,0.0,950.145594607
0,951,0.0,948.145594607
0,952,0.0,950.607097821
0,950,0.0,951.607097821
0,950,0.0,950.145594607
0,949,0.0,949.607097821
0,947,0.0,949.145594607
0,952,0.0,947.145594607
0,958,0.0,952.145594607
0,958,0.0,957.607097821
0,961,0.0,959.839034658
0,958,0.0,960.607097821
0,961,0.0,958.145594607
0,966,0.0,960.607097821
0,969,0.0,965.607097821
0,970,0.0,968.607097821
0,968,0.0,971.839034658
0,965,0.0,968.145594607
0,965,0.0,965.145594607
0,971,0.0,966.839034658
0,974,0.0,970.607097821
0,975,0.0,973.607097821
0,974,0.0,976.839034658
0,974,0.0,974.145594607
0,975,0.0,975.839034658
0,975,0.0,976.839034658
0,977,0.0,976.839034658
0,975,0.0,976.607097821
0,971,0.0,975.145594607
0,970,0.0,971.145594607
0,971,0.0,970.145594607
0,973,0.0,972.839034658
0,975,0.0,972.607097821
0,975,0.0,974.607097821
0,975,0.0,976.839034658
0,980,0.0,976.839034658
0,981,0.0,979.607097821
0,976,0.0,982.839034658
0,969,0.0,976.145594607
0,965,0.0,969.145594607
0,961,0.0,965.145594607
0,960,0.0,961.145594607
0,954,0.0,960.145594607
0,955,0.0,954.145594607
0,954,0.0,956.839034658
0,949,0.0,954.145594607
0,946,0.0,949.145594607
0,945,0.0,946.145594607
0,944,0.0,945.145594607
0,946,0.0,944.145594607
0,946,0.0,946.024968475
0,944,0.0,946.024968475
0,945,0.0,944.145594607
0,944,0.0,945.024968475
0,944,0.0,944.145594607
0,944,0.0,944.024968475
0,945,0.0,944.024968475
0,944,0.0,945.024968475
0,942,0.0,944.145594607
0,942,0.0,942.145594607
0,941,0.0,942.024968475
0,943,0.0,941.145594607
0,946,0.0,943.024968475
0,947,0.0,946.024968475
0,942,0.025,947.024968475
0,941,0.0,942.145594607
0,942,0.0,939.012510455
0,945,0.0,943.839034658
0,947,0.0,945.024968475
0,946,0.0,948.839034658
0,944,0.0,946.145594607
0,942,0.0,944.145594607
0,939,0.0,942.145594607
0,939,0.0,939.145594607
0,933,0.0,938.066460073
0,925,0.0,932.441341357
0,919,0.0,924.441341357
0,915,0.0,918.441341357
0,906,0.0,914.441341357
0,901,0.0,905.441341357
0,905,0.025,900.441341357
0,923,0.0,904.441341357
0,944,0.0,957.4
0,969,0.0,964.882
0,1003,0.0,1003.4
0,1054,0.0,1023.882
0,1109,0.0,1074.882
0,1153,0.0,1129.882
0,1178,0.0,1173.882
0,1180,0.05,1212.4
0,1146,0.875,1179.44134136
0,1079,0.025,1141.04933856
0,1001,0.025,1070.90954994
0,937,0.0,992.909549936
0,907,0.075,928.909549936
0,903,0.175,902.049338557
0,912,0.25,902.441341357
0,924,0.2,917.671106887
0,931,0.025,927.9500718
0,928,0.125,931.534071894
0,928,0.025,928.534071894
0,930,0.0,927.441341357
0,931,0.0,931.839034658
0,932,0.0,930.441341357
0,934,0.0,933.839034658
0,932,0.0,934.024968475
0,931,0.0,931.441341357
0,929,0.0,931.534071894
0,928,0.0,930.839034658
0,930,0.0,927.441341357
0,932,0.0,930.024968475
0,932,0.0,932.024968475
0,933,0.0,932.534071894
0,931,0.0,932.441341357
0,931,0.0,931.534071894
0,931,0.0,930.441341357
0,933,0.0,930.441341357
0,933,0.0,933.534071894
0,933,0.0,933.024968475
0,930,0.0,932.441341357
0,930,0.0,929.441341357
0,932,0.0,929.441341357
0,934,0.0,932.024968475
0,935,0.0,934.024968475
0,933,0.0,934.441341357
0,930,0.0,932.441341357
0,928,0.0,929.441341357
0,929,0.0,927.441341357
0,933,0.0,928.441341357
0,932,0.0,933.024968475
0,930,0.0,932.534071894
0,929,0.0,929.441341357
0,926,0.0,928.441341357
0,928,0.0,925.441341357
0,929,0.0,928.024968475
0,929,0.0,928.441341357
0,928,0.0,928.066460073
0,927,0.0,927.441341357
0,927,0.0,927.549717222
0,929,0.0,926.441341357
0,931,0.0,929.024968475
0,930,0.0,931.534071894
0,928,0.0,912.183591527
0,928,0.0,928.024968475
0,927,0.0,928.024968475
0,927,0.0,927.024968475
0,931,0.0,928.839034658
0,932,0.0,930.441341357
0,929,0.0,933.839034658
0,926,0.0,929.024968475
0,928,0.0,926.024968475
0,932,0.0,928.024968475
0,933,0.025,932.024968475
0,935,0.0,934.839034658
0,932,0.0,935.024968475
0,930,0.0,933.839034658
0,929,0.0,930.024968475
0,932,0.0,930.839034658
0,933,0.0,932.534071894
0,932,0.0,933.024968475
0,932,0.0,932.534071894
0,930,0.0,931.441341357
0,930,0.0,930.024968475
0,933,0.0,929.441341357
0,935,0.0,933.024968475
0,933,0.0,935.534071894
0,932,0.0,932.441341357
0,929,0.0,932.864110364
0,928,0.0,929.024968475
0,931,0.0,929.839034658
0,931,0.0,931.024968475
0,930,0.0,932.839034658
0,928,0.0,930.024968475
0,927,0.0,927.441341357
0,926,0.0,926.441341357
0,929,0.0,925.441341357
0,932,0.0,929.864110364
0,931,0.0,932.024968475
0,930,0.0,930.441341357
0,928,0.0,929.066460073
0,930,0.0,927.066460073
0,930,0.0,930.864110364
0,932,0.0,929.441341357
0,931,0.0,932.024968475
0,931,0.0,931.864110364
0,928,0.0,931.864110364
0,927,0.0,929.839034658
0,929,0.0,926.441341357
0,933,0.0,929.864110364
0,934,0.0,933.024968475
0,934,0.0,933.066460073
0,934,0.0,934.864110364
0,934,0.0,933.441341357
0,938,0.0,933.441341357
0,939,0.0,938.534071894
0,941,0.0,938.441341357
0,942,0.0,940.90893895
0,940,0.0,940.012510455
0,941,0.0,940.864110364
0,947,0.0,940.336257265
0,950,0.0,946.646522051
0,951,0.0,949.336257265
0,952,0.0,950.336257265
0,952,0.0,951.508757319
0,954,0.0,951.336257265
0,956,0.0,953.336257265
0,956,0.0,955.336257265
0,955,0.0,957.111126983
0,954,0.0,954.336257265
0,950,0.0,953.336257265
0,951,0.0,950.864110364
0,954,0.0,950.336257265
0,955,0.0,952.456130123
0,953,0.0,954.336257265
0,954,0.0,952.336257265
0,955,0.0,953.336257265
0,952,0.0,953.456130123
0,954,0.0,951.336257265
0,954,0.0,954.511256452
0,955,0.0,953.224452221
0,952,0.0,953.456130123
0,952,0.0,950.456130123
0,952,0.0,950.557116555
0,954,0.0,952.864110364
0,954,0.0,954.657879516
0,951,0.0,953.292987112
0,951,0.0,951.864110364
0,947,0.0,950.336257265
0,950,0.0,946.292987112
0,954,0.0,950.657879516
0,954,0.0,954.657879516
0,954,0.0,953.292987112
0,954,0.0,953.292987112
0,951,0.0,953.292987112
0,951,0.0,950.336257265
0,949,0.0,950.292987112
0,953,0.0,948.336257265
0,950,0.0,953.864110364
0,948,0.0,950.705090978
0,947,0.0,947.336257265
0,946,0.0,947.705090978
0,949,0.0,946.705090978
0,953,0.0,949.657879516
0,952,0.0,953.657879516
0,951,0.0,953.693563685
0,950,0.0,951.885494579
0,947,0.0,950.885494579
0,947,0.0,947.885494579
0,948,0.0,947.885494579
0,947,0.0,948.885494579
0,946,0.0,947.885494579
0,945,0.0,946.885494579
0,941,0.0,945.885494579
0,945,0.0,940.336257265
0,947,0.0,945.885494579
0,946,0.0,947.885494579
0,945,0.0,945.646522051
0,946,0.0,945.363301029
0,943,0.0,946.885494579
0,944,0.0,943.885494579
0,947,0.0,944.885494579
0,949,0.0,929.183591527
0,948,0.0,949.885494579
0,946,0.0,948.885494579
0,945,0.0,946.885494579
0,946,0.0,945.885494579
0,946,0.0,946.885494579
0,946,0.0,946.885494579
0,944,0.0,946.885494579
0,942,0.0,944.885494579
0,942,0.0,940.852565436
0,942,0.0,941.945085702
0,945,0.0,942.885494579
0,943,0.0,944.945085702
0,940,0.0,943.885494579
0,941,0.0,940.885494579
0,943,0.0,941.885494579
0,944,0.0,943.885494579
0,948,0.0,944.885494579
0,949,0.0,948.885494579
0,949,0.0,949.885494579
0,947,0.0,949.885494579
0,945,0.0,945.635380086
0,948,0.0,945.885494579
0,948,0.0,947.843090673
0,952,0.0,948.885494579
0,949,0.0,952.885494579
0,947,0.0,950.819846206
0,945,0.0,948.819846206
0,949,0.0,946.819846206
0,952,0.0,950.819846206
0,956,0.0,953.819846206
0,953,0.0,958.173892344
0,953,0.0,955.173892344
0,958,0.0,952.402164396
0,962,0.0,957.402164396
0,963,0.0,962.435207249
0,963,0.0,963.435207249
0,961,0.0,963.435207249
0,961,0.0,961.435207249
0,964,0.0,961.435207249
0,968,0.0,964.435207249
0,972,0.0,968.435207249
0,973,0.0,972.435207249
0,972,0.0,973.435207249
0,973,0.0,972.435207249
0,971,0.0,973.435207249
0,975,0.0,971.435207249
0,976,0.0,975.435207249
0,971,0.0,976.435207249
0,967,0.0,969.635380086
0,971,0.0,965.635380086
0,972,0.0,971.435207249
0,973,0.0,971.402164396
0,975,0.0,973.435207249
0,975,0.0,975.435207249
0,978,0.0,975.435207249
0,973,0.0,978.435207249
0,965,0.0,971.635380086
0,963,0.0,963.635380086
0,960,0.0,963.435207249
0,959,0.0,960.435207249
0,954,0.0,959.435207249
0,952,0.0,952.635380086
0,949,0.0,952.435207249
0,950,0.0,948.704645074
0,950,0.0,949.704645074
0,950,0.0,949.704645074
0,949,0.0,949.704645074
0,944,0.0,948.704645074
0,944,0.0,942.635380086
0,946,0.0,942.635380086
0,947,0.0,944.635380086
0,951,0.0,946.704645074
0,948,0.0,950.704645074
0,946,0.0,947.704645074
0,944,0.0,945.704645074
0,945,0.0,943.704645074
0,944,0.0,943.635380086
0,947,0.0,943.704645074
0,945,0.0,946.704645074
0,944,0.0,944.704645074
0,941,0.0,943.704645074
0,946,0.0,940.704645074
0,944,0.0,945.704645074
0,945,0.0,943.704645074
0,944,0.0,944.843090673
0,941,0.0,943.704645074
0,941,0.0,942.045347239
0,942,0.0,940.704645074
0,946,0.0,941.704645074
0,945,0.025,945.704645074
0,938,0.0,946.931743067
0,932,0.0,936.635380086
0,923,0.0,930.635380086
0,920,0.0,921.635380086
0,915,0.0,921.052220147
0,907,0.0,913.635380086
0,902,0.0,905.635380086
0,910,0.0,900.635380086
0,934,0.025,909.704645074
0,964,0.025,954.882
0,1002,0.025,998.4
0,1045,0.025,1022.882
0,1104,0.0,1065.882
0,1156,0.0,1124.882
0,1195,0.0,1176.882
0,1207,0.0,1215.882
0,1176,0.95,1205.63538009
0,1097,0.0,1171.04933856
0,1006,0.0,1088.90954994
0,938,0.0,990.66183863
0,908,0.0,929.909549936
0,906,0.0,903.049338557
0,917,0.025,904.635380086
0,926,0.05,924.537832466
0,931,0.0,933.537832466
0,928,0.0,932.011695228
0,930,0.0,929.052220147
0,930,0.0,931.052220147
0,934,0.0,929.704645074
0,933,0.0,933.704645074
0,932,0.0,934.052220147
0,932,0.0,933.052220147
0,932,0.0,931.704645074
0,933,0.0,931.704645074
0,936,0.0,932.704645074
0,935,0.0,935.704645074
0,934,0.0,936.052220147
0,933,0.0,935.052220147
0,930,0.0,934.052220147
0,931,0.0,931.052220147
0,936,0.0,930.704645074
0,933,0.0,935.704645074
0,932,0.0,934.052220147
0,930,0.0,933.052220147
0,930,0.0,931.052220147
0,932,0.0,929.704645074
0,931,0.0,931.704645074
0,933,0.0,932.052220147
0,933,0.0,932.704645074
0,929,0.0,932.704645074
0,930,0.0,927.635380086
0,930,0.0,929.704645074
0,934,0.0,929.704645074
0,935,0.0,933.704645074
0,935,0.0,934.704645074
0,935,0.0,934.704645074
0,933,0.0,934.704645074
0,935,0.0,934.052220147
0,936,0.0,934.704645074
0,933,0.0,935.704645074
0,932,0.0,934.052220147
0,930,0.0,933.052220147
0,931,0.0,931.052220147
0,933,0.0,930.704645074
0,935,0.0,932.388928938
0,931,0.025,935.172250257
0,931,0.0,929.635380086
0,930,0.0,930.704645074
0,931,0.0,931.052220147
0,932,0.0,930.704645074
0,933,0.0,931.704645074
0,932,0.0,932.704645074
0,933,0.0,933.052220147
0,932,0.0,933.42057518
0,934,0.0,933.052220147
0,934,0.0,934.594402626
0,936,0.0,935.016081838
0,936,0.0,937.052220147
0,935,0.0,936.711257287
0,934,0.0,936.052220147
0,933,0.0,935.052220147
0,933,0.0,934.052220147
0,934,0.0,932.83851607
0,935,0.0,933.886961249
0,932,0.0,935.220872875
0,931,0.0,933.052220147
0,929,0.0,932.052220147
0,935,0.0,930.052220147
0,936,0.0,935.220872875
0,931,0.0,936.220872875
0,934,0.0,929.635380086
0,932,0.0,933.704645074
0,931,0.0,933.052220147
0,932,0.0,932.052220147
0,932,0.0,933.054611012
0,932,0.0,933.054611012
0,928,0.0,933.054611012
0,928,0.0,926.635380086
0,926,0.0,929.054611012
0,929,0.0,927.052220147
0,928,0.0,928.704645074
0,928,0.0,929.052220147
0,927,0.0,929.054611012
0,926,0.0,928.052220147
0,923,0.0,927.052220147
0,926,0.0,924.052220147
0,929,0.0,925.704645074
0,926,0.0,928.704645074
0,927,0.0,927.052220147
0,926,0.0,928.054611012
0,924,0.0,927.052220147
0,928,0.0,925.052220147
0,931,0.0,927.704645074
0,930,0.0,930.704645074
0,932,0.0,931.052220147
0,933,0.0,933.054611012
0,937,0.0,934.054611012
0,942,0.0,936.704645074
0,947,0.0,943.038227709
0,947,0.0,948.038227709
0,948,0.0,948.038227709
0,950,0.0,949.038227709
0,952,0.0,951.038227709
0,956,0.0,953.038227709
0,958,0.0,956.393251552
0,959,0.0,959.038227709
0,959,0.0,960.038227709
0,960,0.0,960.038227709
0,960,0.0,961.038227709
0,964,0.0,961.038227709
0,968,0.0,964.393251552
0,967,0.0,968.393251552
0,966,0.0,968.052220147
0,965,0.0,967.052220147
0,965,0.0,966.052220147
0,967,0.0,966.038227709
0,969,0.0,968.038227709
0,969,0.0,970.038227709
0,968,0.0,970.038227709
0,965,0.0,969.052220147
0,965,0.0,966.052220147
0,967,0.0,966.038227709
0,968,0.0,968.038227709
0,966,0.0,969.038227709
0,966,0.0,967.052220147
0,964,0.0,967.038227709
0,964,0.0,965.052220147
0,966,0.0,965.038227709
0,968,0.0,967.038227709
0,966,0.0,969.038227709
0,965,0.0,967.052220147
0,963,0.0,966.052220147
0,963,0.0,964.052220147
0,963,0.0,964.038227709
0,966,0.0,964.038227709
0,966,0.0,966.393251552
0,965,0.0,967.038227709
0,965,0.0,966.052220147
0,964,0.0,966.038227709
0,965,0.0,965.052220147
0,969,0.0,966.038227709
0,966,0.0,969.393251552
0,964,0.0,967.052220147
0,965,0.0,965.052220147
0,963,0.0,966.038227709
0,966,0.0,964.052220147
0,966,0.0,966.393251552
0,964,0.0,967.038227709
0,963,0.0,965.052220147
0,961,0.0,964.052220147
0,959,0.0,962.052220147
0,963,0.0,960.052220147
0,965,0.0,963.393251552
0,963,0.0,966.038227709
0,959,0.0,964.052220147
0,958,0.0,957.635380086
0,958,0.0,959.052220147
0,959,0.0,959.038227709
0,961,0.0,960.038227709
0,960,0.0,962.038227709
0,960,0.0,961.052220147
0,959,0.0,961.038227709
0,958,0.0,960.052220147
0,960,0.0,959.052220147
0,963,0.0,961.038227709
0,963,0.0,963.393251552
0,963,0.0,964.038227709
0,961,0.0,964.038227709
0,962,0.0,962.052220147
0,961,0.0,963.038227709
0,965,0.0,962.052220147
0,964,0.0,965.393251552
0,963,0.0,965.052220147
0,960,0.0,964.052220147
0,960,0.0,961.052220147
0,961,0.0,961.038227709
0,962,0.0,962.038227709
0,962,0.0,963.038227709
0,960,0.0,963.038227709
0,958,0.0,961.052220147
0,960,0.0,959.052220147
0,960,0.0,961.038227709
0,963,0.0,961.038227709
0,962,0.0,963.393251552
0,961,0.0,963.052220147
0,961,0.0,962.052220147
0,959,0.0,962.038227709
0,961,0.0,960.052220147
0,963,0.0,962.038227709
0,963,0.0,964.038227709
0,964,0.0,964.038227709
0,963,0.0,965.038227709
0,964,0.0,964.052220147
0,970,0.0,965.038227709
0,972,0.0,971.038227709
0,975,0.0,973.038227709
0,975,0.0,975.393251552
0,975,0.0,976.038227709
0,975,0.0,976.038227709
0,978,0.0,976.038227709
0,982,0.0,978.393251552
0,980,0.0,982.393251552
0,982,0.0,981.052220147
0,983,0.0,983.038227709
0,984,0.0,984.038227709
0,987,0.0,985.038227709
0,989,0.0,987.393251552
0,990,0.0,990.038227709
0,989,0.0,991.038227709
0,987,0.0,990.052220147
0,986,0.0,988.052220147
0,985,0.0,987.052220147
0,986,0.0,986.052220147
0,988,0.0,987.038227709
0,989,0.0,989.038227709
0,988,0.0,990.038227709
0,986,0.0,989.052220147
0,992,0.0,987.052220147
0,996,0.0,993.038227709
0,999,0.0,996.393251552
0,994,0.0,999.393251552
0,987,0.0,992.635380086
0,979,0.0,985.635380086
0,976,0.0,977.635380086
0,977,0.0,977.052220147
0,973,0.0,978.038227709
0,972,0.0,971.635380086
0,966,0.0,973.052220147
0,962,0.0,964.635380086
0,962,0.0,960.635380086
0,964,0.0,963.038227709
0,959,0.0,965.038227709
0,961,0.0,957.635380086
0,959,0.0,962.038227709
0,958,0.0,960.052220147
0,959,0.0,959.052220147
0,960,0.0,960.038227709
0,958,0.0,961.038227709
0,957,0.0,959.052220147
0,954,0.0,958.052220147
0,951,0.0,955.052220147
0,957,0.025,952.052220147
0,959,0.0,955.67314088
0,961,0.0,960.038227709
0,959,0.0,962.038227709
0,958,0.0,960.052220147
0,956,0.0,959.052220147
0,958,0.0,957.052220147
0,960,0.0,957.118887322
0,959,0.0,959.983221125
0,956,0.025,958.983221125
0,954,0.0,955.688254788
0,948,0.0,953.688254788
0,944,0.0,946.635380086
0,938,0.0,942.635380086
0,935,0.0,936.635380086
0,928,0.0,934.688254788
0,919,0.0,926.635380086
0,914,0.0,917.635380086
0,925,0.0,912.635380086
0,945,0.0,926.038227709
0,970,0.0,946.038227709
0,994,0.025,996.3174
0,1021,0.0,1020.3174
0,1058,0.0,1047.3174
0,1109,0.0,1084.3174
0,1160,0.0,1135.3174
0,1194,0.0,1186.3174
0,1213,0.0,1220.3174
0,1227,0.0,1214.03822771
0,1238,0.025,1225.63538009
0,1237,0.025,1239.03822771
0,1200,0.3,1235.63538009
0,1124,0.0,1192.97508281
0,1036,0.0,1116.83668496
0,965,0.0,1020.66183863
0,928,0.05,877.0
0,923,0.025,920.975082808
0,935,0.225,921.635380086
0,946,0.025,936.038227709
0,948,0.025,947.038227709
0,947,0.0,949.038227709
0,944,0.0,946.688254788
0,947,0.0,943.688254788
0,949,0.0,946.688254788
0,948,0.0,948.688254788
0,949,0.0,947.688254788
0,949,0.0,948.688254788
0,947,0.0,948.688254788
0,946,0.0,946.688254788
0,949,0.0,945.688254788
0,949,0.0,948.688254788
0,946,0.0,948.688254788
0,945,0.0,945.688254788
0,944,0.0,947.817638057
0,946,0.0,945.67234664
0,948,0.0,945.688254788
0,946,0.0,947.688254788
0,944,0.0,947.770642648
0,945,0.0,944.639449854
0,944,0.0,944.688254788
0,947,0.0,944.747614898
0,948,0.0,946.688254788
0,947,0.0,947.688254788
0,946,0.0,947.747614898
0,946,0.0,946.747614898
0,946,0.0,946.223330428
0,948,0.0,946.1563313
0,950,0.0,948.10943191
0,948,0.0,950.10943191
0,945,0.0,948.10943191
0,942,0.0,945.10943191
0,944,0.0,941.176602337
0,946,0.0,943.176602337
0,948,0.0,945.176602337
0,947,0.0,948.023621636
0,948,0.0,947.023621636
0,947,0.0,948.023621636
0,945,0.0,947.023621636
0,945,0.0,945.023621636
0,947,0.0,944.416535145
0,947,0.0,946.591574602
0,947,0.0,946.591574602
0,945,0.0,946.591574602
0,946,0.0,944.591574602
0,949,0.0,945.114102221
0,950,0.0,948.679871555
0,948,0.0,949.679871555
0,948,0.0,947.679871555
0,947,0.0,947.679871555
0,949,0.0,946.679871555
0,949,0.0,948.679871555
0,954,0.0,948.679871555
0,954,0.0,953.679871555
0,952,0.0,953.679871555
0,952,0.0,951.679871555
0,949,0.0,951.675276086
0,953,0.0,948.679871555
0,954,0.0,952.679871555
0,952,0.0,953.679871555
0,950,0.0,951.679871555
0,949,0.0,949.679871555
0,949,0.0,948.679871555
0,949,0.0,948.679871555
0,951,0.0,948.679871555
0,951,0.0,950.679871555
0,951,0.0,950.679871555
0,946,0.0,950.679871555
0,948,0.0,945.679871555
0,949,0.0,946.275910088
0,952,0.0,947.275910088
0,952,0.0,950.275910088
0,950,0.0,950.275910088
0,947,0.0,948.275910088
0,950,0.0,945.275910088
0,952,0.0,948.275910088
0,954,0.0,950.275910088
0,953,0.0,952.275910088
0,950,0.0,951.275910088
0,953,0.0,948.275910088
0,952,0.0,951.275910088
0,953,0.0,950.275910088
0,955,0.0,952.449863932
0,955,0.0,954.449863932
0,958,0.0,954.449863932
0,956,0.0,958.688636485
0,956,0.0,954.275910088
0,959,0.0,955.449863932
0,961,0.0,959.688636485
0,963,0.0,960.449863932
0,964,0.0,962.449863932
0,965,0.0,963.449863932
0,961,0.0,964.449863932
0,968,0.0,960.449863932
0,971,0.0,967.449863932
0,972,0.0,971.688636485
0,973,0.0,971.449863932
0,971,0.0,972.449863932
0,971,0.0,969.275910088
0,976,0.0,970.449863932
0,979,0.0,975.449863932
0,977,0.0,979.688636485
0,976,0.0,975.275910088
0,974,0.0,974.275910088
0,976,0.0,973.449863932
0,975,0.0,975.449863932
0,978,0.0,973.275910088
0,976,0.0,978.688636485
0,975,0.0,975.449863932
0,973,0.0,973.275910088
0,972,0.0,972.449863932
0,975,0.0,970.275910088
0,976,0.0,975.688636485
0,976,0.0,975.449863932
0,973,0.0,975.449863932
0,974,0.0,972.449863932
0,972,0.0,973.449863932
0,976,0.0,971.449863932
0,976,0.0,976.688636485
0,978,0.0,975.449863932
0,976,0.0,977.449863932
0,973,0.0,974.275910088
0,973,0.0,971.275910088
0,975,0.0,972.449863932
0,975,0.0,974.449863932
0,976,0.0,974.449863932
0,975,0.0,975.449863932
0,973,0.0,973.275910088
0,972,0.0,971.275910088
0,972,0.0,970.275910088
0,976,0.0,971.449863932
0,976,0.0,976.688636485
0,978,0.0,975.449863932
0,975,0.0,977.449863932
0,972,0.0,974.449863932
0,973,0.0,970.275910088
0,974,0.0,972.449863932
0,973,0.0,972.275910088
0,974,0.0,971.275910088
0,971,0.0,973.449863932
0,968,0.0,969.275910088
0,971,0.0,966.275910088
0,973,0.0,971.688636485
0,970,0.0,973.688636485
0,970,0.0,968.275910088
0,967,0.0,969.449863932
0,966,0.0,965.275910088
0,968,0.0,964.275910088
0,972,0.0,967.449863932
0,968,0.0,972.688636485
0,967,0.0,967.449863932
0,964,0.0,965.275910088
0,962,0.0,962.275910088
0,962,0.0,960.275910088
0,967,0.0,961.449863932
0,968,0.0,966.449863932
0,966,0.0,967.449863932
0,963,0.0,964.275910088
0,965,0.0,961.275910088
0,966,0.0,964.449863932
0,969,0.0,965.449863932
0,968,0.0,969.688636485
0,967,0.0,966.275910088
0,964,0.0,965.275910088
0,964,0.0,962.275910088
0,965,0.0,963.449863932
0,968,0.0,964.449863932
0,965,0.0,967.449863932
0,964,0.0,966.377244846
0,962,0.0,965.377244846
0,961,0.0,963.377244846
0,963,0.0,959.275910088
0,964,0.0,963.688636485
0,966,0.0,963.449863932
0,963,0.0,965.449863932
0,963,0.0,962.60561072
0,965,0.0,962.449863932
0,966,0.0,966.377244846
0,966,0.0,965.449863932
0,965,0.0,965.449863932
0,966,0.0,966.377244846
0,962,0.0,965.449863932
0,965,0.0,963.377244846
0,966,0.0,963.275910088
0,970,0.0,965.449863932
0,970,0.0,971.377244846
0,970,0.0,970.688636485
0,969,0.0,969.449863932
0,971,0.0,970.377244846
0,975,0.0,970.449863932
0,978,0.0,973.275910088
0,979,0.0,977.746797405
0,979,0.0,978.449863932
0,981,0.0,978.449863932
0,979,0.0,980.449863932
0,984,0.0,977.275910088
0,984,0.0,983.449863932
0,986,0.0,983.449863932
0,985,0.0,987.377244846
0,984,0.0,983.275910088
0,984,0.0,982.275910088
0,989,0.0,985.377244846
0,994,0.0,988.449863932
0,994,0.0,993.449863932
0,990,0.0,993.449863932
0,990,0.0,989.449863932
0,987,0.0,989.449863932
0,990,0.0,985.275910088
0,990,0.0,989.449863932
0,989,0.0,989.449863932
0,990,0.0,989.688636485
0,991,0.0,989.449863932
0,990,0.0,990.449863932
0,992,0.0,988.275910088
0,999,0.0,993.377244846
0,998,0.0,997.275910088
0,998,0.0,997.449863932
0,987,0.0,996.275910088
0,981,0.025,986.746797405
0,978,0.05,979.635380086
0,979,0.025,977.449863932
0,976,0.025,980.377244846
0,970,0.0,975.746797405
0,968,0.0,970.688636485
0,965,0.0,968.688636485
0,965,0.0,963.275910088
0,963,0.0,965.688636485
0,963,0.0,961.275910088
0,962,0.0,963.688636485
0,961,0.0,961.449863932
0,960,0.0,959.275910088
0,960,0.0,958.275910088
0,962,0.0,959.449863932
0,962,0.0,961.449863932
0,958,0.0,961.746797405
0,957,0.0,957.746797405
0,956,0.0,957.688636485
0,961,0.0,954.275910088
0,964,0.0,961.688636485
0,962,0.0,963.449863932
0,961,0.0,960.635380086
0,960,0.0,959.275910088
0,959,0.0,958.275910088
0,961,0.0,957.275910088
0,963,0.0,960.534849975
0,963,0.0,962.449863932
0,962,0.0,961.275910088
0,959,0.0,960.275910088
0,959,0.0,957.275910088
0,958,0.0,958.449863932
0,960,0.0,956.275910088
0,958,0.0,959.522758183
0,957,0.0,956.275910088
0,953,0.0,955.275910088
0,948,0.0,952.449863932
0,944,0.0,946.275910088
0,939,0.0,943.28204554
0,935,0.0,937.275910088
0,930,0.0,932.54476606
0,917,0.0,928.275910088
0,912,0.025,914.54476606
0,924,0.15,910.275910088
0,944,0.075,922.275910088
0,971,0.05,942.275910088
0,996,0.025,997.3174
0,1029,0.0,1022.3174
0,1080,0.0,1055.3174
0,1137,0.0,1106.3174
0,1180,0.0,1163.3174
0,1202,0.025,1206.3174
0,1203,0.05,1200.27591009
0,1171,0.9,1200.54476606
0,1099,0.05,1163.97508281
0,1022,0.0,1011.0
0,961,0.025,934.0
0,930,0.025,873.0
0,924,0.0,922.975082808
0,929,0.075,921.54476606
0,939,0.175,928.522758183
0,950,0.2,937.275910088
0,952,0.075,948.275910088
0,951,0.05,950.275910088
0,950,0.0,951.097431878
0,949,0.0,948.275910088
0,948,0.0,947.275910088
0,951,0.0,946.275910088
0,952,0.0,951.918303329
0,952,0.0,952.918303329
0,950,0.0,952.918303329
0,948,0.0,948.275910088
0,947,0.0,948.25774162
0,951,0.0,947.04281233
0,952,0.0,951.25774162
0,951,0.0,951.522758183
0,950,0.0,951.04281233
0,950,0.0,950.04281233
0,948,0.0,948.275910088
0,952,0.0,948.480419134
0,954,0.0,952.480419134
0,952,0.0,953.810978042
0,953,0.0,953.536293394
0,951,0.0,952.810978042
0,951,0.0,950.810978042
0,953,0.0,949.769617479
0,953,0.0,953.632783763
0,954,0.0,954.042948634
0,952,0.0,954.730064044
0,950,0.0,950.275910088
0,952,0.0,948.275910088
0,952,0.0,951.911044831
0,955,0.0,952.537731381
0,955,0.0,954.267684629
0,952,0.0,955.376411967
0,952,0.0,952.376411967
0,948,0.0,951.267684629
0,950,0.0,947.267684629
0,954,0.0,949.554441864
0,952,0.0,953.554441864
0,951,0.0,951.554441864
0,949,0.0,950.088109305
0,949,0.0,948.088109305
0,953,0.0,948.088109305
0,952,0.0,952.622815828
0,953,0.0,952.561676513
0,952,0.0,953.093173559
0,951,0.0,952.365221492
0,951,0.0,950.955655044
0,953,0.0,950.955655044
0,955,0.0,952.955655044
0,954,0.0,955.568958531
0,953,0.0,954.568958531
0,949,0.0,953.568958531
0,950,0.0,949.098270972
0,951,0.0,948.535971079
0,952,0.0,951.098270972
0,952,0.0,952.098270972
0,951,0.0,952.36878968
0,948,0.0,951.258152776
0,950,0.0,948.258152776
0,951,0.0,950.258152776
0,953,0.0,951.258152776
0,953,0.0,953.258152776
0,953,0.0,953.780706943
0,952,0.0,953.54649486
0,950,0.0,952.382546402
0,952,0.0,949.967782482
0,953,0.0,951.967782482
0,955,0.0,953.577447737
0,953,0.0,955.704213416
0,951,0.0,951.275910088
0,948,0.0,950.892949391
0,953,0.0,947.892949391
0,954,0.0,952.892949391
0,954,0.0,955.425064574
0,952,0.0,955.425064574
0,952,0.0,953.425064574
0,949,0.0,952.397545202
0,951,0.0,949.278281641
0,951,0.0,951.278281641
0,952,0.0,951.278281641
0,953,0.0,952.278281641
0,950,0.0,953.494797149
0,948,0.0,950.646358004
0,951,0.0,948.646358004
0,952,0.0,951.646358004
0,954,0.0,952.646358004
0,952,0.0,954.752450603
0,952,0.0,952.752450603
0,951,0.0,951.926715422
0,954,0.0,950.948700795
0,958,0.0,953.948700795
0,956,0.0,957.948700795
0,956,0.0,955.948700795
0,955,0.0,955.948700795
0,955,0.0,954.948700795
0,957,0.0,954.948700795
0,960,0.0,956.948700795
0,960,0.0,959.948700795
0,961,0.0,959.948700795
0,960,0.0,960.948700795
0,961,0.0,959.948700795
0,961,0.0,960.948700795
0,965,0.0,960.948700795
0,967,0.0,964.948700795
0,967,0.0,966.948700795
0,967,0.0,966.948700795
0,969,0.0,966.948700795
0,971,0.0,968.948700795
0,972,0.0,970.948700795
0,973,0.0,971.948700795
0,973,0.0,972.948700795
0,971,0.0,972.948700795
0,972,0.0,970.948700795
0,973,0.0,971.948700795
0,976,0.0,972.948700795
0,976,0.0,975.948700795
0,977,0.0,975.948700795
0,976,0.0,976.948700795
0,974,0.0,975.948700795
0,975,0.0,973.948700795
0,975,0.0,974.948700795
0,977,0.0,974.948700795
0,974,0.0,976.948700795
0,974,0.0,973.948700795
0,971,0.0,973.948700795
0,975,0.025,970.948700795
0,977,0.0,974.948700795
0,975,0.0,976.948700795
0,975,0.0,974.948700795
0,972,0.0,974.948700795
0,972,0.0,971.948700795
0,974,0.0,971.948700795
0,975,0.0,973.948700795
0,975,0.0,974.948700795
0,973,0.0,974.948700795
0,974,0.0,972.948700795
0,970,0.0,973.948700795
0,973,0.0,969.948700795
0,973,0.0,972.948700795
0,971,0.0,972.948700795
0,972,0.0,970.948700795
0,971,0.0,971.948700795
0,970,0.0,970.948700795
0,972,0.0,969.948700795
0,972,0.0,971.948700795
0,974,0.0,971.948700795
0,973,0.0,973.948700795
0,972,0.0,972.948700795
0,971,0.0,971.948700795
0,971,0.0,970.948700795
0,973,0.0,970.948700795
0,971,0.0,972.948700795
0,969,0.0,970.948700795
0,969,0.0,968.948700795
0,967,0.0,968.948700795
0,970,0.0,966.948700795
0,972,0.0,969.948700795
0,970,0.0,971.948700795
0,970,0.0,969.948700795
0,969,0.0,969.948700795
0,966,0.0,968.948700795
0,968,0.0,965.948700795
0,969,0.0,967.948700795
0,968,0.0,968.948700795
0,967,0.0,967.948700795
0,960,0.0,966.948700795
0,962,0.0,959.948700795
0,965,0.0,961.948700795
0,968,0.0,964.948700795
0,970,0.0,967.948700795
0,969,0.0,969.948700795
0,967,0.0,968.948700795
0,966,0.0,966.948700795
0,968,0.0,965.948700795
0,969,0.0,967.948700795
0,967,0.0,968.948700795
